# Pulseq sequence file
# Created by PyPulseq

[VERSION]
major 1
minor 4
revision 2

[DEFINITIONS]
AdcRasterTime 1e-07 
BlockDurationRaster 1e-05 
FOV 0.256 0.256 0.016 
GradientRasterTime 1e-05 
Name QRAGE 
RES 256 256 16 
RadiofrequencyRasterTime 1e-06 
TotalDuration 72.71824 

# Format of blocks:
# NUM DUR RF  GX  GY  GZ  ADC  EXT
[BLOCKS]
    1 1038   1   0   0   0  0  0
    2 500   0   1   1   1  0  0
    3   0   0   0   0   0  0  0
    4 214   2   0   0   2  0  0
    5  83   0   3   4   5  0  3
    6 259   0   6   7   0  1  4
    7  16   0   8   9   0  0  0
    8 259   0  10  11   0  1  5
    9  16   0  12  13   0  0  0
   10 259   0  14  15   0  1  6
   11  16   0  16  17   0  0  0
   12 259   0  18  19   0  1  7
   13  16   0  20  21   0  0  0
   14 259   0  22  23   0  1  8
   15  16   0  24  25   0  0  0
   16 259   0  26  27   0  1  9
   17  16   0  28  29   0  0  0
   18 259   0  30  31   0  1 10
   19  16   0  32  33   0  0  0
   20 259   0  34  35   0  1 11
   21  16   0  36  37   0  0  0
   22 259   0  38  39   0  1 12
   23 229   0  40  41  42  0  0
   24 214   3   0   0   2  0  0
   25  83   0   3   4  43  0 14
   26 259   0   6   7   0  2  4
   27  16   0   8   9   0  0  0
   28 259   0  10  11   0  2  5
   29  16   0  12  13   0  0  0
   30 259   0  14  15   0  2  6
   31  16   0  16  17   0  0  0
   32 259   0  18  19   0  2  7
   33  16   0  20  21   0  0  0
   34 259   0  22  23   0  2  8
   35  16   0  24  25   0  0  0
   36 259   0  26  27   0  2  9
   37  16   0  28  29   0  0  0
   38 259   0  30  31   0  2 10
   39  16   0  32  33   0  0  0
   40 259   0  34  35   0  2 11
   41  16   0  36  37   0  0  0
   42 259   0  38  39   0  2 12
   43 229   0  40  41  44  0  0
   44 214   4   0   0   2  0  0
   45  83   0   3   4  45  0 15
   46 259   0   6   7   0  3  4
   47  16   0   8   9   0  0  0
   48 259   0  10  11   0  3  5
   49  16   0  12  13   0  0  0
   50 259   0  14  15   0  3  6
   51  16   0  16  17   0  0  0
   52 259   0  18  19   0  3  7
   53  16   0  20  21   0  0  0
   54 259   0  22  23   0  3  8
   55  16   0  24  25   0  0  0
   56 259   0  26  27   0  3  9
   57  16   0  28  29   0  0  0
   58 259   0  30  31   0  3 10
   59  16   0  32  33   0  0  0
   60 259   0  34  35   0  3 11
   61  16   0  36  37   0  0  0
   62 259   0  38  39   0  3 12
   63 229   0  40  41  46  0  0
   64 214   5   0   0   2  0  0
   65  83   0   3   4  47  0 16
   66 259   0   6   7   0  4  4
   67  16   0   8   9   0  0  0
   68 259   0  10  11   0  4  5
   69  16   0  12  13   0  0  0
   70 259   0  14  15   0  4  6
   71  16   0  16  17   0  0  0
   72 259   0  18  19   0  4  7
   73  16   0  20  21   0  0  0
   74 259   0  22  23   0  4  8
   75  16   0  24  25   0  0  0
   76 259   0  26  27   0  4  9
   77  16   0  28  29   0  0  0
   78 259   0  30  31   0  4 10
   79  16   0  32  33   0  0  0
   80 259   0  34  35   0  4 11
   81  16   0  36  37   0  0  0
   82 259   0  38  39   0  4 12
   83 229   0  40  41  48  0  0
   84 214   6   0   0   2  0  0
   85  83   0   3   4  49  0 17
   86 259   0   6   7   0  5  4
   87  16   0   8   9   0  0  0
   88 259   0  10  11   0  5  5
   89  16   0  12  13   0  0  0
   90 259   0  14  15   0  5  6
   91  16   0  16  17   0  0  0
   92 259   0  18  19   0  5  7
   93  16   0  20  21   0  0  0
   94 259   0  22  23   0  5  8
   95  16   0  24  25   0  0  0
   96 259   0  26  27   0  5  9
   97  16   0  28  29   0  0  0
   98 259   0  30  31   0  5 10
   99  16   0  32  33   0  0  0
  100 259   0  34  35   0  5 11
  101  16   0  36  37   0  0  0
  102 259   0  38  39   0  5 12
  103 229   0  40  41  50  0  0
  104 214   7   0   0   2  0  0
  105  83   0   3   4  51  0 18
  106 259   0   6   7   0  6  4
  107  16   0   8   9   0  0  0
  108 259   0  10  11   0  6  5
  109  16   0  12  13   0  0  0
  110 259   0  14  15   0  6  6
  111  16   0  16  17   0  0  0
  112 259   0  18  19   0  6  7
  113  16   0  20  21   0  0  0
  114 259   0  22  23   0  6  8
  115  16   0  24  25   0  0  0
  116 259   0  26  27   0  6  9
  117  16   0  28  29   0  0  0
  118 259   0  30  31   0  6 10
  119  16   0  32  33   0  0  0
  120 259   0  34  35   0  6 11
  121  16   0  36  37   0  0  0
  122 259   0  38  39   0  6 12
  123 229   0  40  41  52  0  0
  124 214   8   0   0   2  0  0
  125  83   0   3   4  53  0 19
  126 259   0   6   7   0  7  4
  127  16   0   8   9   0  0  0
  128 259   0  10  11   0  7  5
  129  16   0  12  13   0  0  0
  130 259   0  14  15   0  7  6
  131  16   0  16  17   0  0  0
  132 259   0  18  19   0  7  7
  133  16   0  20  21   0  0  0
  134 259   0  22  23   0  7  8
  135  16   0  24  25   0  0  0
  136 259   0  26  27   0  7  9
  137  16   0  28  29   0  0  0
  138 259   0  30  31   0  7 10
  139  16   0  32  33   0  0  0
  140 259   0  34  35   0  7 11
  141  16   0  36  37   0  0  0
  142 259   0  38  39   0  7 12
  143 229   0  40  41  54  0  0
  144 214   9   0   0   2  0  0
  145  83   0   3   4  55  0 20
  146 259   0   6   7   0  8  4
  147  16   0   8   9   0  0  0
  148 259   0  10  11   0  8  5
  149  16   0  12  13   0  0  0
  150 259   0  14  15   0  8  6
  151  16   0  16  17   0  0  0
  152 259   0  18  19   0  8  7
  153  16   0  20  21   0  0  0
  154 259   0  22  23   0  8  8
  155  16   0  24  25   0  0  0
  156 259   0  26  27   0  8  9
  157  16   0  28  29   0  0  0
  158 259   0  30  31   0  8 10
  159  16   0  32  33   0  0  0
  160 259   0  34  35   0  8 11
  161  16   0  36  37   0  0  0
  162 259   0  38  39   0  8 12
  163 229   0  40  41  56  0  0
  164 214   2   0   0   2  0  0
  165  83   0   3   4  57  0 21
  166 259   0   6   7   0  1  4
  167  16   0   8   9   0  0  0
  168 259   0  10  11   0  1  5
  169  16   0  12  13   0  0  0
  170 259   0  14  15   0  1  6
  171  16   0  16  17   0  0  0
  172 259   0  18  19   0  1  7
  173  16   0  20  21   0  0  0
  174 259   0  22  23   0  1  8
  175  16   0  24  25   0  0  0
  176 259   0  26  27   0  1  9
  177  16   0  28  29   0  0  0
  178 259   0  30  31   0  1 10
  179  16   0  32  33   0  0  0
  180 259   0  34  35   0  1 11
  181  16   0  36  37   0  0  0
  182 259   0  38  39   0  1 12
  183 229   0  40  41  58  0  0
  184 214  10   0   0   2  0  0
  185  83   0   3   4  59  0 22
  186 259   0   6   7   0  9  4
  187  16   0   8   9   0  0  0
  188 259   0  10  11   0  9  5
  189  16   0  12  13   0  0  0
  190 259   0  14  15   0  9  6
  191  16   0  16  17   0  0  0
  192 259   0  18  19   0  9  7
  193  16   0  20  21   0  0  0
  194 259   0  22  23   0  9  8
  195  16   0  24  25   0  0  0
  196 259   0  26  27   0  9  9
  197  16   0  28  29   0  0  0
  198 259   0  30  31   0  9 10
  199  16   0  32  33   0  0  0
  200 259   0  34  35   0  9 11
  201  16   0  36  37   0  0  0
  202 259   0  38  39   0  9 12
  203 229   0  40  41  60  0  0
  204 214  11   0   0   2  0  0
  205  83   0   3   4  61  0 23
  206 259   0   6   7   0 10  4
  207  16   0   8   9   0  0  0
  208 259   0  10  11   0 10  5
  209  16   0  12  13   0  0  0
  210 259   0  14  15   0 10  6
  211  16   0  16  17   0  0  0
  212 259   0  18  19   0 10  7
  213  16   0  20  21   0  0  0
  214 259   0  22  23   0 10  8
  215  16   0  24  25   0  0  0
  216 259   0  26  27   0 10  9
  217  16   0  28  29   0  0  0
  218 259   0  30  31   0 10 10
  219  16   0  32  33   0  0  0
  220 259   0  34  35   0 10 11
  221  16   0  36  37   0  0  0
  222 259   0  38  39   0 10 12
  223 229   0  40  41  62  0  0
  224 214  12   0   0   2  0  0
  225  83   0   3   4  63  0 24
  226 259   0   6   7   0 11  4
  227  16   0   8   9   0  0  0
  228 259   0  10  11   0 11  5
  229  16   0  12  13   0  0  0
  230 259   0  14  15   0 11  6
  231  16   0  16  17   0  0  0
  232 259   0  18  19   0 11  7
  233  16   0  20  21   0  0  0
  234 259   0  22  23   0 11  8
  235  16   0  24  25   0  0  0
  236 259   0  26  27   0 11  9
  237  16   0  28  29   0  0  0
  238 259   0  30  31   0 11 10
  239  16   0  32  33   0  0  0
  240 259   0  34  35   0 11 11
  241  16   0  36  37   0  0  0
  242 259   0  38  39   0 11 12
  243 229   0  40  41  64  0  0
  244 214   5   0   0   2  0  0
  245  83   0   3   4  65  0 25
  246 259   0   6   7   0  4  4
  247  16   0   8   9   0  0  0
  248 259   0  10  11   0  4  5
  249  16   0  12  13   0  0  0
  250 259   0  14  15   0  4  6
  251  16   0  16  17   0  0  0
  252 259   0  18  19   0  4  7
  253  16   0  20  21   0  0  0
  254 259   0  22  23   0  4  8
  255  16   0  24  25   0  0  0
  256 259   0  26  27   0  4  9
  257  16   0  28  29   0  0  0
  258 259   0  30  31   0  4 10
  259  16   0  32  33   0  0  0
  260 259   0  34  35   0  4 11
  261  16   0  36  37   0  0  0
  262 259   0  38  39   0  4 12
  263 229   0  40  41  66  0  0
  264 214  11   0   0   2  0  0
  265  83   0   3   4  67  0 26
  266 259   0   6   7   0 10  4
  267  16   0   8   9   0  0  0
  268 259   0  10  11   0 10  5
  269  16   0  12  13   0  0  0
  270 259   0  14  15   0 10  6
  271  16   0  16  17   0  0  0
  272 259   0  18  19   0 10  7
  273  16   0  20  21   0  0  0
  274 259   0  22  23   0 10  8
  275  16   0  24  25   0  0  0
  276 259   0  26  27   0 10  9
  277  16   0  28  29   0  0  0
  278 259   0  30  31   0 10 10
  279  16   0  32  33   0  0  0
  280 259   0  34  35   0 10 11
  281  16   0  36  37   0  0  0
  282 259   0  38  39   0 10 12
  283 229   0  40  41  68  0  0
  284 214  13   0   0   2  0  0
  285  83   0   3   4  69  0 27
  286 259   0   6   7   0 12  4
  287  16   0   8   9   0  0  0
  288 259   0  10  11   0 12  5
  289  16   0  12  13   0  0  0
  290 259   0  14  15   0 12  6
  291  16   0  16  17   0  0  0
  292 259   0  18  19   0 12  7
  293  16   0  20  21   0  0  0
  294 259   0  22  23   0 12  8
  295  16   0  24  25   0  0  0
  296 259   0  26  27   0 12  9
  297  16   0  28  29   0  0  0
  298 259   0  30  31   0 12 10
  299  16   0  32  33   0  0  0
  300 259   0  34  35   0 12 11
  301  16   0  36  37   0  0  0
[RF]
1      812.331 1 2 3 100 0 0
2      69.4997 4 5 0 100 0 0
3      69.4997 4 5 0 100 0 0.872665
4      69.4997 4 5 0 100 0 2.61799
5      69.4997 4 5 0 100 0 5.23599
6      69.4997 4 5 0 100 0 2.44346
7      69.4997 4 5 0 100 0 0.523599
8      69.4997 4 5 0 100 0 5.75959
9      69.4997 4 5 0 100 0 5.58505
10      69.4997 4 5 0 100 0 1.5708
11      69.4997 4 5 0 100 0 4.01426
12      69.4997 4 5 0 100 0 1.0472
13      69.4997 4 5 0 100 0 3.66519
14      69.4997 4 5 0 100 0 4.18879
15      69.4997 4 5 0 100 0 4.71239
16      69.4997 4 5 0 100 0 2.0944
17      69.4997 4 5 0 100 0 3.14159

# Format of arbitrary gradients:
#   time_shape_id of 0 means default timing (stepping with grad_raster starting at 1/2 of grad_raster)
# id amplitude amp_shape_id time_shape_id delay
# ..      Hz/m       ..         ..          us
[GRADIENTS]
3 -1.17188e+06 6 7 200
4            0 8 7 200
6       390625 9 10 0
7            0 11 10 0
8       390625 12 13 0
9       195150 14 13 0
10      -390600 9 10 0
11     -4435.24 9 10 0
12      -390600 15 13 0
13      -195125 16 13 0
14       390524 9 10 0
15       8869.9 9 10 0
16       390524 17 13 0
17       195075 18 13 0
18      -390398 9 10 0
19     -13303.4 9 10 0
20      -390398 19 13 0
21      -194999 20 13 0
22       390222 9 10 0
23      17735.2 9 10 0
24       390222 21 13 0
25       194899 22 13 0
26      -389996 9 10 0
27     -22164.8 9 10 0
28      -389996 23 13 0
29      -194773 24 13 0
30       389719 9 10 0
31      26591.4 9 10 0
32       389719 25 13 0
33       194622 26 13 0
34      -389392 9 10 0
35     -31014.6 9 10 0
36      -389392 27 13 0
37      -194446 28 13 0
38       389015 9 10 0
39      35433.9 9 10 0
40  1.18534e+06 29 30 0
41  1.18534e+06 31 30 0
73 -1.16576e+06 6 7 200
74      -119546 6 7 200
75       388587 9 10 0
76      39848.6 9 10 0
77       388587 32 13 0
78       194019 33 13 0
79      -388110 9 10 0
80     -44258.1 9 10 0
81      -388110 34 13 0
82      -193768 35 13 0
83       387582 9 10 0
84      48661.9 9 10 0
85       387582 36 13 0
86       193492 37 13 0
87      -387005 9 10 0
88     -53059.5 9 10 0
89      -387005 38 13 0
90      -193191 39 13 0
91       386377 9 10 0
92      57450.2 9 10 0
93       386377 40 13 0
94       192865 41 13 0
95      -385700 9 10 0
96     -61833.5 9 10 0
97      -385700 42 13 0
98      -192515 43 13 0
99       384973 9 10 0
100      66208.8 9 10 0
101       384973 44 13 0
102       192139 45 13 0
103      -384197 9 10 0
104     -70575.6 9 10 0
105      -384197 46 13 0
106      -191739 47 13 0
107       383370 9 10 0
108      74933.3 9 10 0
109  1.18534e+06 48 30 0
110  1.18534e+06 49 30 0
111 -1.14748e+06 6 7 200
112      -237844 6 7 200
113       382495 9 10 0
114      79281.3 9 10 0
115       382495 50 13 0
116       190864 51 13 0
117      -381570 9 10 0
118     -83619.1 9 10 0
119      -381570 52 13 0
120      -190390 53 13 0
121       380596 9 10 0
122      87946.2 9 10 0
123       380596 54 13 0
124       189891 55 13 0
125      -379573 9 10 0
126     -92261.9 9 10 0
127      -379573 56 13 0
128      -189367 57 13 0
129       378501 9 10 0
130      96565.7 9 10 0
131       378501 58 13 0
132       188820 59 13 0
133      -377380 9 10 0
134      -100857 9 10 0
135      -377380 60 13 0
136      -188247 61 13 0
137       376211 9 10 0
138       105135 9 10 0
139       376211 62 13 0
140       187651 63 13 0
141      -374993 9 10 0
142      -109400 9 10 0
143      -374993 64 13 0
144      -187030 65 13 0
145       373726 9 10 0
146       113651 9 10 0
147  1.18534e+06 66 30 0
148  1.18534e+06 67 30 0
149 -1.11724e+06 6 7 200
150      -353661 6 7 200
151       372412 9 10 0
152       117887 9 10 0
153       372412 68 13 0
154       185717 69 13 0
155      -371049 9 10 0
156      -122108 9 10 0
157      -371049 70 13 0
158      -185024 71 13 0
159       369639 9 10 0
160       126313 9 10 0
161       369639 72 13 0
162       184308 73 13 0
163      -368181 9 10 0
164      -130502 9 10 0
165      -368181 74 13 0
166      -183568 75 13 0
167       366675 9 10 0
168       134674 9 10 0
169       366675 76 13 0
170       182804 77 13 0
171      -365123 9 10 0
172      -138828 9 10 0
173      -365123 78 13 0
174      -182016 79 13 0
175       363523 9 10 0
176       142965 9 10 0
177       363523 80 13 0
178       181205 81 13 0
179      -361876 9 10 0
180      -147083 9 10 0
181      -361876 82 13 0
182      -180371 83 13 0
183       360183 9 10 0
184       151183 9 10 0
185  1.18534e+06 84 30 0
186  1.18534e+06 85 30 0
187 -1.07533e+06 6 7 200
188      -465787 6 7 200
189       358443 9 10 0
190       155262 9 10 0
191       358443 86 13 0
192       178632 87 13 0
193      -356657 9 10 0
194      -159322 9 10 0
195      -356657 88 13 0
196      -177729 89 13 0
197       354825 9 10 0
198       163362 9 10 0
199       354825 90 13 0
200       176802 91 13 0
201      -352947 9 10 0
202      -167380 9 10 0
203      -352947 92 13 0
204      -175853 93 13 0
205       351024 9 10 0
206       171376 9 10 0
207       351024 94 13 0
208       175351 95 13 0
209      -349056 9 10 0
210      -175351 9 10 0
211      -349056 96 13 0
212      -179303 97 13 0
213       347042 9 10 0
214       179303 9 10 0
215       347042 98 13 0
216       183232 99 13 0
217      -344984 9 10 0
218      -183232 9 10 0
219      -344984 100 13 0
220      -187137 101 13 0
221       342881 9 10 0
222       187137 9 10 0
223  1.18534e+06 102 30 0
224  1.18534e+06 103 30 0
225  -1.0222e+06 6 7 200
226      -573054 6 7 200
227       340734 9 10 0
228       191018 9 10 0
229       340734 104 13 0
230       194875 105 13 0
231      -338544 9 10 0
232      -194875 9 10 0
233      -338544 106 13 0
234      -198706 107 13 0
235       336309 9 10 0
236       198706 9 10 0
237       336309 108 13 0
238       202512 109 13 0
239      -334031 9 10 0
240      -202512 9 10 0
241      -334031 110 13 0
242      -206291 111 13 0
243       331710 9 10 0
244       206291 9 10 0
245       331710 112 13 0
246       210044 113 13 0
247      -329347 9 10 0
248      -210044 9 10 0
249      -329347 114 13 0
250      -213770 115 13 0
251       326941 9 10 0
252       213770 9 10 0
253       326941 116 13 0
254       217469 117 13 0
255      -324492 9 10 0
256      -217469 9 10 0
257      -324492 118 13 0
258      -221139 119 13 0
259       322002 9 10 0
260       221139 9 10 0
261  1.18534e+06 120 30 0
262  1.18534e+06 121 30 0
263      -958412 6 7 200
264      -674342 6 7 200
265       319471 9 10 0
266       224781 9 10 0
267       319471 122 13 0
268       228394 123 13 0
269      -316898 9 10 0
270      -228394 9 10 0
271      -316898 124 13 0
272      -231977 125 13 0
273       314284 9 10 0
274       231977 9 10 0
275       314284 126 13 0
276       235530 127 13 0
277      -311630 9 10 0
278      -235530 9 10 0
279      -311630 128 13 0
280      -239054 129 13 0
281       308936 9 10 0
282       239054 9 10 0
283       308936 130 13 0
284       242546 131 13 0
285      -306202 9 10 0
286      -242546 9 10 0
287      -306202 132 13 0
288      -246007 133 13 0
289       303428 9 10 0
290       246007 9 10 0
291       303428 134 13 0
292       249436 135 13 0
293      -300615 9 10 0
294      -249436 9 10 0
295      -300615 136 13 0
296      -252833 137 13 0
297       297764 9 10 0
298       252833 9 10 0
299  1.18534e+06 138 30 0
300  1.18534e+06 139 30 0
301      -884621 6 7 200
302      -768594 6 7 200
303       294874 9 10 0
304       256198 9 10 0
305       294874 140 13 0
306       259530 141 13 0
307      -291946 9 10 0
308      -259530 9 10 0
309      -291946 142 13 0
310      -262828 143 13 0
311       288980 9 10 0
312       262828 9 10 0
313       288980 144 13 0
314       266092 145 13 0
315      -285977 9 10 0
316      -266092 9 10 0
317      -285977 146 13 0
318      -269322 147 13 0
319       282938 9 10 0
320       269322 9 10 0
321       282938 148 13 0
322       272517 149 13 0
323      -279861 9 10 0
324      -272517 9 10 0
325      -279861 150 13 0
326      -275677 151 13 0
327       276749 9 10 0
328       275677 9 10 0
329       276749 152 13 0
330       278801 153 13 0
331      -273601 9 10 0
332      -278801 9 10 0
333      -273601 154 13 0
334      -281890 155 13 0
335       270418 9 10 0
336       281890 9 10 0
337  1.18534e+06 156 30 0
338  1.18534e+06 157 30 0
339      -801600 6 7 200
340      -854827 6 7 200
341       267200 9 10 0
342       284942 9 10 0
343       267200 158 13 0
344       287958 159 13 0
345      -263947 9 10 0
346      -287958 9 10 0
347      -263947 160 13 0
348      -290936 161 13 0
349       260661 9 10 0
350       290936 9 10 0
351       260661 162 13 0
352       293877 163 13 0
353      -257341 9 10 0
354      -293877 9 10 0
355      -257341 164 13 0
356      -296780 165 13 0
357       253987 9 10 0
358       296780 9 10 0
359       253987 166 13 0
360       299645 167 13 0
361      -250601 9 10 0
362      -299645 9 10 0
363      -250601 168 13 0
364      -302471 169 13 0
365       247183 9 10 0
366       302471 9 10 0
367       247183 170 13 0
368       305258 171 13 0
369      -243733 9 10 0
370      -305258 9 10 0
371      -243733 172 13 0
372      -308005 173 13 0
373       240251 9 10 0
374       308005 9 10 0
375  1.18534e+06 174 30 0
376  1.18534e+06 175 30 0
377      -710215 6 7 200
378      -932140 6 7 200
379       236738 9 10 0
380       310713 9 10 0
381       236738 176 13 0
382       313381 177 13 0
383      -233195 9 10 0
384      -313381 9 10 0
385      -233195 178 13 0
386      -316009 179 13 0
387       229622 9 10 0
388       316009 9 10 0
389       229622 180 13 0
390       318596 181 13 0
391      -226019 9 10 0
392      -318596 9 10 0
393      -226019 182 13 0
394      -321141 183 13 0
395       222387 9 10 0
396       321141 9 10 0
397       222387 184 13 0
398       323646 185 13 0
399      -218727 9 10 0
400      -323646 9 10 0
401      -218727 186 13 0
402      -326108 187 13 0
403       215038 9 10 0
404       326108 9 10 0
405       215038 188 13 0
406       328529 189 13 0
407      -211321 9 10 0
408      -328529 9 10 0
409      -211321 190 13 0
410      -330907 191 13 0
411       207577 9 10 0
412       330907 9 10 0
413  1.18534e+06 192 30 0
414  1.18534e+06 193 30 0
415      -611421 6 7 200
416      -999728 6 7 200
417       203807 9 10 0
418       333243 9 10 0
419       203807 194 13 0
420       335535 195 13 0
421      -200010 9 10 0
422      -335535 9 10 0
423      -200010 196 13 0
424      -337785 197 13 0
425       196187 9 10 0
426       337785 9 10 0
427       196187 198 13 0
428       339990 199 13 0
429      -192339 9 10 0
430      -339990 9 10 0
431      -192339 200 13 0
432      -342152 201 13 0
433       188467 9 10 0
434       342152 9 10 0
435       188467 202 13 0
436       344270 203 13 0
437      -184570 9 10 0
438      -344270 9 10 0
439      -184570 204 13 0
440      -346344 205 13 0
441       180649 9 10 0
442       346344 9 10 0
443       180649 206 13 0
444       348372 207 13 0
445      -176705 9 10 0
446      -348372 9 10 0
447      -176705 208 13 0
448      -350356 209 13 0
449       172738 9 10 0
450       350356 9 10 0
451  1.18534e+06 210 30 0
452  1.18534e+06 211 30 0
453      -506246 6 7 200
454 -1.05688e+06 6 7 200
455       168749 9 10 0
456       352295 9 10 0
457       176480 212 13 0
458       354188 213 13 0
459      -164738 9 10 0
460      -354188 9 10 0
461      -177414 214 13 0
462      -356036 215 13 0
463       160706 9 10 0
464       356036 9 10 0
465       178326 216 13 0
466       357838 217 13 0
467      -156653 9 10 0
468      -357838 9 10 0
469      -179215 218 13 0
470      -359593 219 13 0
471       152580 9 10 0
472       359593 9 10 0
473       180080 220 13 0
474       361302 221 13 0
475      -148487 9 10 0
476      -361302 9 10 0
477      -180922 222 13 0
478      -362965 223 13 0
479       144375 9 10 0
480       362965 9 10 0
481       181741 224 13 0
482       364581 225 13 0
483      -140245 9 10 0
484      -364581 9 10 0
485      -182537 226 13 0
486      -366150 227 13 0
487       136096 9 10 0
488       366150 9 10 0
489  1.18534e+06 228 30 0
490  1.18534e+06 229 30 0
491      -395790 6 7 200
492 -1.10301e+06 6 7 200
493       131930 9 10 0
494       367672 9 10 0
495       184057 230 13 0
496       369146 231 13 0
497      -127747 9 10 0
498      -369146 9 10 0
499      -184782 232 13 0
500      -370572 233 13 0
501       123547 9 10 0
502       370572 9 10 0
503       185483 234 13 0
504       371951 235 13 0
505      -119332 9 10 0
506      -371951 9 10 0
507      -186160 236 13 0
508      -373282 237 13 0
509       115101 9 10 0
510       373282 9 10 0
511       186813 238 13 0
512       374565 239 13 0
513      -110855 9 10 0
514      -374565 9 10 0
515      -187442 240 13 0
516      -375800 241 13 0
517       106595 9 10 0
518       375800 9 10 0
519       188046 242 13 0
520       376986 243 13 0
521      -102321 9 10 0
522      -376986 9 10 0
523      -188627 244 13 0
524      -378123 245 13 0
525      98034.4 9 10 0
526       378123 9 10 0
527  1.18534e+06 246 30 0
528  1.18534e+06 247 30 0
529      -281204 6 7 200
530 -1.13764e+06 6 7 200
531      93734.7 9 10 0
532       379212 9 10 0
533       189714 248 13 0
534       380252 249 13 0
535       -89423 9 10 0
536      -380252 9 10 0
537      -190222 250 13 0
538      -381243 251 13 0
539      85099.8 9 10 0
540       381243 9 10 0
541       190704 252 13 0
542       382184 253 13 0
543     -80765.6 9 10 0
544      -382184 9 10 0
545      -191163 254 13 0
546      -383077 255 13 0
547        76421 9 10 0
548       383077 9 10 0
549       191596 256 13 0
550       383920 257 13 0
551     -72066.6 9 10 0
552      -383920 9 10 0
553      -192005 258 13 0
554      -384713 259 13 0
555      67702.8 9 10 0
556       384713 9 10 0
557       192389 260 13 0
558       385457 261 13 0
559     -63330.3 9 10 0
560      -385457 9 10 0
561      -192748 262 13 0
562      -386151 263 13 0
563      58949.7 9 10 0
564       386151 9 10 0
565  1.18534e+06 264 30 0
566  1.18534e+06 265 30 0
567      -163684 6 7 200
568 -1.16039e+06 6 7 200
569      54561.5 9 10 0
570       386796 9 10 0
571       193392 266 13 0
572       387390 267 13 0
573     -50166.2 9 10 0
574      -387390 9 10 0
575      -193677 268 13 0
576      -387935 269 13 0
577      45764.4 9 10 0
578       387935 9 10 0
579       193936 270 13 0
580       388430 271 13 0
581     -41356.8 9 10 0
582      -388430 9 10 0
583      -194171 272 13 0
584      -388874 273 13 0
585      36943.8 9 10 0
586       388874 9 10 0
587       194380 274 13 0
588       389268 275 13 0
589     -32526.1 9 10 0
590      -389268 9 10 0
591      -194565 276 13 0
592      -389613 277 13 0
593      28104.2 9 10 0
594       389613 9 10 0
595       194724 278 13 0
596       389907 279 13 0
597     -23678.6 9 10 0
598      -389907 9 10 0
599      -194859 280 13 0
600      -390150 281 13 0
601        19250 9 10 0
602       390150 9 10 0
603  1.18534e+06 282 30 0
604  1.18534e+06 283 30 0
605     -44456.7 6 7 200
606 -1.17103e+06 6 7 200
607      14818.9 9 10 0
608       390344 9 10 0
609       195052 284 13 0
610       390487 285 13 0
611     -10385.9 9 10 0
612      -390487 9 10 0
613      -195111 286 13 0
614      -390580 287 13 0
615      5951.57 9 10 0
616       390580 9 10 0
617       195145 288 13 0
618       390622 289 13 0
619     -1516.46 9 10 0
620      -390622 9 10 0
621      -195153 290 13 0
622      -390622 291 13 0
623     -2918.84 9 10 0
624       390614 9 10 0
625      -195137 292 13 0
626       390614 293 13 0
627      7353.76 9 10 0
628      -390556 9 10 0
629       195095 294 13 0
630      -390556 295 13 0
631     -11787.7 9 10 0
632       390447 9 10 0
633      -195028 296 13 0
634       390447 297 13 0
635      16220.2 9 10 0
636      -390288 9 10 0
637       194936 298 13 0
638      -390288 299 13 0
639     -20650.6 9 10 0
640       390079 9 10 0
641 -1.18534e+06 300 30 0
642  1.18534e+06 301 30 0
643      75234.8 6 7 200
644 -1.16946e+06 6 7 200
645     -25078.3 9 10 0
646       389819 9 10 0
647      -194677 302 13 0
648       389819 303 13 0
649      29502.7 9 10 0
650      -389509 9 10 0
651       194509 304 13 0
652      -389509 305 13 0
653     -33923.4 9 10 0
654       389149 9 10 0
655      -194317 306 13 0
656       389149 307 13 0
657      38339.7 9 10 0
658      -388739 9 10 0
659       194099 308 13 0
660      -388739 309 13 0
661       -42751 9 10 0
662       388279 9 10 0
663      -193857 310 13 0
664       388279 311 13 0
665      47156.9 9 10 0
666      -387768 9 10 0
667       193589 312 13 0
668      -387768 313 13 0
669     -51556.6 9 10 0
670       387208 9 10 0
671      -193297 314 13 0
672       387208 315 13 0
673      55949.8 9 10 0
674      -386597 9 10 0
675       192980 316 13 0
676      -386597 317 13 0
677     -60335.7 9 10 0
678       385937 9 10 0
679 -1.18534e+06 318 30 0
680  1.18534e+06 319 30 0
681       194141 6 7 200
682 -1.15568e+06 6 7 200
683     -64713.8 9 10 0
684       385227 9 10 0
685      -192270 320 13 0
686       385227 321 13 0
687      69083.6 9 10 0
688      -384468 9 10 0
689       191878 322 13 0
690      -384468 323 13 0
691     -73444.4 9 10 0
692       383658 9 10 0
693      -191462 324 13 0
694       383658 325 13 0
695      77795.8 9 10 0
696      -382800 9 10 0
697       191020 326 13 0
698      -382800 327 13 0
699     -82137.2 9 10 0
700       381892 9 10 0
701      -190554 328 13 0
702       381892 329 13 0
703        86468 9 10 0
704      -380935 9 10 0
705       190064 330 13 0
706      -380935 331 13 0
707     -90787.6 9 10 0
708       379928 9 10 0
709      -189549 332 13 0
710       379928 333 13 0
711      95095.6 9 10 0
712      -378873 9 10 0
713       189010 334 13 0
714      -378873 335 13 0
715     -99391.2 9 10 0
716       377769 9 10 0
717 -1.18534e+06 336 30 0
718  1.18534e+06 337 30 0
719       311022 6 7 200
720 -1.12985e+06 6 7 200
721      -103674 9 10 0
722       376616 9 10 0
723      -187858 338 13 0
724       376616 339 13 0
725       107944 9 10 0
726      -375415 9 10 0
727       187245 340 13 0
728      -375415 341 13 0
729      -112199 9 10 0
730       374165 9 10 0
731      -186609 342 13 0
732       374165 343 13 0
733       116440 9 10 0
734      -372867 9 10 0
735       185948 344 13 0
736      -372867 345 13 0
737      -120666 9 10 0
738       371521 9 10 0
739      -185264 346 13 0
740       371521 347 13 0
741       124877 9 10 0
742      -370127 9 10 0
743       184556 348 13 0
744      -370127 349 13 0
745      -129071 9 10 0
746       368685 9 10 0
747      -183823 350 13 0
748       368685 351 13 0
749       133249 9 10 0
750      -367196 9 10 0
751       183067 352 13 0
752      -367196 353 13 0
753      -137410 9 10 0
754       365659 9 10 0
755 -1.18534e+06 354 30 0
756  1.18534e+06 355 30 0
757       424658 6 7 200
758 -1.09223e+06 6 7 200
759      -141553 9 10 0
760       364075 9 10 0
761      -181485 356 13 0
762       364075 357 13 0
763       145677 9 10 0
764      -362444 9 10 0
765       180659 358 13 0
766      -362444 359 13 0
767      -149783 9 10 0
768       360767 9 10 0
769      -179809 360 13 0
770       360767 361 13 0
771       153870 9 10 0
772      -359043 9 10 0
773       178936 362 13 0
774      -359043 363 13 0
775      -157937 9 10 0
776       357273 9 10 0
777      -178040 364 13 0
778       357273 365 13 0
779       161983 9 10 0
780      -355457 9 10 0
781       177121 366 13 0
782      -355457 367 13 0
783      -166008 9 10 0
784       353595 9 10 0
785      -176180 368 13 0
786       353595 369 13 0
787       170012 9 10 0
788      -351687 9 10 0
789       175215 370 13 0
790      -351687 371 13 0
791      -173995 9 10 0
792       349734 9 10 0
793 -1.18534e+06 372 30 0
794  1.18534e+06 373 30 0
795       533863 6 7 200
796 -1.04321e+06 6 7 200
797      -177954 9 10 0
798       347736 9 10 0
799      -181891 374 13 0
800       347736 375 13 0
801       181891 9 10 0
802      -345693 9 10 0
803       185805 376 13 0
804      -345693 377 13 0
805      -185805 9 10 0
806       343605 9 10 0
