# Pulseq sequence file
# Created by PyPulseq

[VERSION]
major 1
minor 4
revision 2

[DEFINITIONS]
AdcRasterTime 1e-07 
BlockDurationRaster 1e-05 
FOV 0.2 0.2 0.005 
GradientRasterTime 1e-05 
Nphase 64 
Nread 64 
RadiofrequencyRasterTime 1e-06 
TotalDuration 31.98848 

# Format of blocks:
# NUM DUR RF  GX  GY  GZ  ADC  EXT
[BLOCKS]
  1   0   0   0   0   0  0  1
  2 1036   1   0   0   0  0  0
  3  90   0   1   1   2  0  0
  4 1036   1   0   0   0  0  0
  5 809   0   1   1   2  0  0
  6 130   2   0   0   3  0  0
  7 100   0   4   5   6  0  0
  8  11   0   0   0   0  0  0
  9 650   0   7   0   0  1  0
 10 46120   0   1   8   2  0  2
 11 1036   3   0   0   0  0  0
 12  90   0   1   1   2  0  0
 13 1036   3   0   0   0  0  0
 14 809   0   1   1   2  0  0
 15 130   4   0   0   3  0  0
 16 100   0   4   9   6  0  0
 17  11   0   0   0   0  0  0
 18 650   0   7   0   0  2  0
 19 46120   0   1  10   2  0  2
 20 1036   5   0   0   0  0  0
 21  90   0   1   1   2  0  0
 22 1036   5   0   0   0  0  0
 23 809   0   1   1   2  0  0
 24 130   6   0   0   3  0  0
 25 100   0   4  11   6  0  0
 26  11   0   0   0   0  0  0
 27 650   0   7   0   0  3  0
 28 46120   0   1  12   2  0  2
 29 1036   7   0   0   0  0  0
 30  90   0   1   1   2  0  0
 31 1036   7   0   0   0  0  0
 32 809   0   1   1   2  0  0
 33 130   8   0   0   3  0  0
 34 100   0   4  13   6  0  0
 35  11   0   0   0   0  0  0
 36 650   0   7   0   0  4  0
 37 46120   0   1  14   2  0  2
 38 1036   9   0   0   0  0  0
 39  90   0   1   1   2  0  0
 40 1036   9   0   0   0  0  0
 41 809   0   1   1   2  0  0
 42 130  10   0   0   3  0  0
 43 100   0   4  15   6  0  0
 44  11   0   0   0   0  0  0
 45 650   0   7   0   0  5  0
 46 46120   0   1  16   2  0  2
 47 1036  11   0   0   0  0  0
 48  90   0   1   1   2  0  0
 49 1036  11   0   0   0  0  0
 50 809   0   1   1   2  0  0
 51 130  12   0   0   3  0  0
 52 100   0   4  17   6  0  0
 53  11   0   0   0   0  0  0
 54 650   0   7   0   0  6  0
 55 46120   0   1  18   2  0  2
 56 1036  13   0   0   0  0  0
 57  90   0   1   1   2  0  0
 58 1036  13   0   0   0  0  0
 59 809   0   1   1   2  0  0
 60 130  14   0   0   3  0  0
 61 100   0   4  19   6  0  0
 62  11   0   0   0   0  0  0
 63 650   0   7   0   0  7  0
 64 46120   0   1  20   2  0  2
 65 1036  15   0   0   0  0  0
 66  90   0   1   1   2  0  0
 67 1036  15   0   0   0  0  0
 68 809   0   1   1   2  0  0
 69 130  16   0   0   3  0  0
 70 100   0   4  21   6  0  0
 71  11   0   0   0   0  0  0
 72 650   0   7   0   0  8  0
 73 46120   0   1  22   2  0  2
 74 1036  17   0   0   0  0  0
 75  90   0   1   1   2  0  0
 76 1036  17   0   0   0  0  0
 77 809   0   1   1   2  0  0
 78 130  18   0   0   3  0  0
 79 100   0   4  23   6  0  0
 80  11   0   0   0   0  0  0
 81 650   0   7   0   0  9  0
 82 46120   0   1  24   2  0  2
 83 1036  19   0   0   0  0  0
 84  90   0   1   1   2  0  0
 85 1036  19   0   0   0  0  0
 86 809   0   1   1   2  0  0
 87 130  20   0   0   3  0  0
 88 100   0   4  25   6  0  0
 89  11   0   0   0   0  0  0
 90 650   0   7   0   0 10  0
 91 46120   0   1  26   2  0  2
 92 1036  11   0   0   0  0  0
 93  90   0   1   1   2  0  0
 94 1036  11   0   0   0  0  0
 95 809   0   1   1   2  0  0
 96 130  12   0   0   3  0  0
 97 100   0   4  27   6  0  0
 98  11   0   0   0   0  0  0
 99 650   0   7   0   0  6  0
100 46120   0   1  28   2  0  2
101 1036  21   0   0   0  0  0
102  90   0   1   1   2  0  0
103 1036  21   0   0   0  0  0
104 809   0   1   1   2  0  0
105 130  22   0   0   3  0  0
106 100   0   4  29   6  0  0
107  11   0   0   0   0  0  0
108 650   0   7   0   0 11  0
109 46120   0   1  30   2  0  2
110 1036  23   0   0   0  0  0
111  90   0   1   1   2  0  0
112 1036  23   0   0   0  0  0
113 809   0   1   1   2  0  0
114 130  24   0   0   3  0  0
115 100   0   4  31   6  0  0
116  11   0   0   0   0  0  0
117 650   0   7   0   0 12  0
118 46120   0   1  32   2  0  2
119 1036  25   0   0   0  0  0
120  90   0   1   1   2  0  0
121 1036  25   0   0   0  0  0
122 809   0   1   1   2  0  0
123 130  26   0   0   3  0  0
124 100   0   4  33   6  0  0
125  11   0   0   0   0  0  0
126 650   0   7   0   0 13  0
127 46120   0   1  34   2  0  2
128 1036  27   0   0   0  0  0
129  90   0   1   1   2  0  0
130 1036  27   0   0   0  0  0
131 809   0   1   1   2  0  0
132 130  28   0   0   3  0  0
133 100   0   4  35   6  0  0
134  11   0   0   0   0  0  0
135 650   0   7   0   0 14  0
136 46120   0   1  36   2  0  2
137 1036   1   0   0   0  0  0
138  90   0   1   1   2  0  0
139 1036   1   0   0   0  0  0
140 809   0   1   1   2  0  0
141 130   2   0   0   3  0  0
142 100   0   4  37   6  0  0
143  11   0   0   0   0  0  0
144 650   0   7   0   0  1  0
145 46120   0   1  38   2  0  2
146 1036  29   0   0   0  0  0
147  90   0   1   1   2  0  0
148 1036  29   0   0   0  0  0
149 809   0   1   1   2  0  0
150 130  30   0   0   3  0  0
151 100   0   4  39   6  0  0
152  11   0   0   0   0  0  0
153 650   0   7   0   0 15  0
154 46120   0   1  40   2  0  2
155 1036  31   0   0   0  0  0
156  90   0   1   1   2  0  0
157 1036  31   0   0   0  0  0
158 809   0   1   1   2  0  0
159 130  32   0   0   3  0  0
160 100   0   4  41   6  0  0
161  11   0   0   0   0  0  0
162 650   0   7   0   0 16  0
163 46120   0   1  42   2  0  2
164 1036  25   0   0   0  0  0
165  90   0   1   1   2  0  0
166 1036  25   0   0   0  0  0
167 809   0   1   1   2  0  0
168 130  26   0   0   3  0  0
169 100   0   4  43   6  0  0
170  11   0   0   0   0  0  0
171 650   0   7   0   0 13  0
172 46120   0   1  44   2  0  2
173 1036  33   0   0   0  0  0
174  90   0   1   1   2  0  0
175 1036  33   0   0   0  0  0
176 809   0   1   1   2  0  0
177 130  34   0   0   3  0  0
178 100   0   4  45   6  0  0
179  11   0   0   0   0  0  0
180 650   0   7   0   0 17  0
181 46120   0   1  46   2  0  2
182 1036   9   0   0   0  0  0
183  90   0   1   1   2  0  0
184 1036   9   0   0   0  0  0
185 809   0   1   1   2  0  0
186 130  10   0   0   3  0  0
187 100   0   4  47   6  0  0
188  11   0   0   0   0  0  0
189 650   0   7   0   0  5  0
190 46120   0   1  48   2  0  2
191 1036  35   0   0   0  0  0
192  90   0   1   1   2  0  0
193 1036  35   0   0   0  0  0
194 809   0   1   1   2  0  0
195 130  36   0   0   3  0  0
196 100   0   4  49   6  0  0
197  11   0   0   0   0  0  0
198 650   0   7   0   0 18  0
199 46120   0   1  50   2  0  2
200 1036  37   0   0   0  0  0
201  90   0   1   1   2  0  0
202 1036  37   0   0   0  0  0
203 809   0   1   1   2  0  0
204 130  38   0   0   3  0  0
205 100   0   4  51   6  0  0
206  11   0   0   0   0  0  0
207 650   0   7   0   0 19  0
208 46120   0   1  52   2  0  2
209 1036  17   0   0   0  0  0
210  90   0   1   1   2  0  0
211 1036  17   0   0   0  0  0
212 809   0   1   1   2  0  0
213 130  18   0   0   3  0  0
214 100   0   4  53   6  0  0
215  11   0   0   0   0  0  0
216 650   0   7   0   0  9  0
217 46120   0   1  54   2  0  2
218 1036  39   0   0   0  0  0
219  90   0   1   1   2  0  0
220 1036  39   0   0   0  0  0
221 809   0   1   1   2  0  0
222 130  40   0   0   3  0  0
223 100   0   4  55   6  0  0
224  11   0   0   0   0  0  0
225 650   0   7   0   0 20  0
226 46120   0   1  56   2  0  2
227 1036  19   0   0   0  0  0
228  90   0   1   1   2  0  0
229 1036  19   0   0   0  0  0
230 809   0   1   1   2  0  0
231 130  20   0   0   3  0  0
232 100   0   4  57   6  0  0
233  11   0   0   0   0  0  0
234 650   0   7   0   0 10  0
235 46120   0   1  58   2  0  2
236 1036  35   0   0   0  0  0
237  90   0   1   1   2  0  0
238 1036  35   0   0   0  0  0
239 809   0   1   1   2  0  0
240 130  36   0   0   3  0  0
241 100   0   4  59   6  0  0
242  11   0   0   0   0  0  0
243 650   0   7   0   0 18  0
244 46120   0   1  60   2  0  2
245 1036  41   0   0   0  0  0
246  90   0   1   1   2  0  0
247 1036  41   0   0   0  0  0
248 809   0   1   1   2  0  0
249 130  42   0   0   3  0  0
250 100   0   4  61   6  0  0
251  11   0   0   0   0  0  0
252 650   0   7   0   0 21  0
253 46120   0   1  62   2  0  2
254 1036   7   0   0   0  0  0
255  90   0   1   1   2  0  0
256 1036   7   0   0   0  0  0
257 809   0   1   1   2  0  0
258 130   8   0   0   3  0  0
259 100   0   4  63   6  0  0
260  11   0   0   0   0  0  0
261 650   0   7   0   0  4  0
262 46120   0   1  64   2  0  2
263 1036  43   0   0   0  0  0
264  90   0   1   1   2  0  0
265 1036  43   0   0   0  0  0
266 809   0   1   1   2  0  0
267 130  44   0   0   3  0  0
268 100   0   4  65   6  0  0
269  11   0   0   0   0  0  0
270 650   0   7   0   0 22  0
271 46120   0   1  66   2  0  2
272 1036  27   0   0   0  0  0
273  90   0   1   1   2  0  0
274 1036  27   0   0   0  0  0
275 809   0   1   1   2  0  0
276 130  28   0   0   3  0  0
277 100   0   4  67   6  0  0
278  11   0   0   0   0  0  0
279 650   0   7   0   0 14  0
280 46120   0   1  68   2  0  2
281 1036  29   0   0   0  0  0
282  90   0   1   1   2  0  0
283 1036  29   0   0   0  0  0
284 809   0   1   1   2  0  0
285 130  30   0   0   3  0  0
286 100   0   4  69   6  0  0
287  11   0   0   0   0  0  0
288 650   0   7   0   0 15  0
289 46120   0   1  70   2  0  2
290 1036  45   0   0   0  0  0
291  90   0   1   1   2  0  0
292 1036  45   0   0   0  0  0
293 809   0   1   1   2  0  0
294 130  46   0   0   3  0  0
295 100   0   4  71   6  0  0
296  11   0   0   0   0  0  0
297 650   0   7   0   0 23  0
298 46120   0   1  71   2  0  2
299 1036   3   0   0   0  0  0
300  90   0   1   1   2  0  0
301 1036   3   0   0   0  0  0
302 809   0   1   1   2  0  0
303 130   4   0   0   3  0  0
304 100   0   4  70   6  0  0
305  11   0   0   0   0  0  0
306 650   0   7   0   0  2  0
307 46120   0   1  69   2  0  2
308 1036  43   0   0   0  0  0
309  90   0   1   1   2  0  0
310 1036  43   0   0   0  0  0
311 809   0   1   1   2  0  0
312 130  44   0   0   3  0  0
313 100   0   4  68   6  0  0
314  11   0   0   0   0  0  0
315 650   0   7   0   0 22  0
316 46120   0   1  67   2  0  2
317 1036  33   0   0   0  0  0
[RF]
1      609.248 1 2 3 100 0 0
2      329.149 4 5 0 150 0 0
3      609.248 1 2 3 100 0 2.04204
4      329.149 4 5 0 150 0 2.04204
5      609.248 1 2 3 100 0 6.12611
6      329.149 4 5 0 150 0 6.12611
7      609.248 1 2 3 100 0 5.96903
8      329.149 4 5 0 150 0 5.96903
9      609.248 1 2 3 100 0 1.5708
10      329.149 4 5 0 150 0 1.5708
11      609.248 1 2 3 100 0 5.49779
12      329.149 4 5 0 150 0 5.49779
13      609.248 1 2 3 100 0 5.18363
14      329.149 4 5 0 150 0 5.18363
15      609.248 1 2 3 100 0 0.628319
16      329.149 4 5 0 150 0 0.628319
17      609.248 1 2 3 100 0 4.39823
18      329.149 4 5 0 150 0 4.39823
19      609.248 1 2 3 100 0 3.92699
20      329.149 4 5 0 150 0 3.92699
21      609.248 1 2 3 100 0 2.82743
22      329.149 4 5 0 150 0 2.82743
23      609.248 1 2 3 100 0 2.19911
24      329.149 4 5 0 150 0 2.19911
25      609.248 1 2 3 100 0 3.61283
26      329.149 4 5 0 150 0 3.61283
27      609.248 1 2 3 100 0 0.785398
28      329.149 4 5 0 150 0 0.785398
29      609.248 1 2 3 100 0 1.25664
30      329.149 4 5 0 150 0 1.25664
31      609.248 1 2 3 100 0 4.55531
32      329.149 4 5 0 150 0 4.55531
33      609.248 1 2 3 100 0 4.71239
34      329.149 4 5 0 150 0 4.71239
35      609.248 1 2 3 100 0 0.471239
36      329.149 4 5 0 150 0 0.471239
37      609.248 1 2 3 100 0 1.41372
38      329.149 4 5 0 150 0 1.41372
39      609.248 1 2 3 100 0 3.14159
40      329.149 4 5 0 150 0 3.14159
41      609.248 1 2 3 100 0 5.34071
42      329.149 4 5 0 150 0 5.34071
43      609.248 1 2 3 100 0 2.35619
44      329.149 4 5 0 150 0 2.35619
45      609.248 1 2 3 100 0 3.76991
46      329.149 4 5 0 150 0 3.76991
47      609.248 1 2 3 100 0 2.98451
48      329.149 4 5 0 150 0 2.98451

# Format of trapezoid gradients:
# id amplitude rise flat fall delay
# ..      Hz/m   us   us   us    us
[TRAP]
 1  1.16364e+06 200  350 200   0
 2  1.14286e+06 200  500 200   0
 3       800000 150 1000 150   0
 4      -201562 200  600 200   0
 5       200000 200  600 200   0
 6      -575000 200  600 200   0
 7        50000  50 6400  50   0
 8      -200000 200  600 200   0
 9       193750 200  600 200   0
10      -193750 200  600 200   0
11       187500 200  600 200   0
12      -187500 200  600 200   0
13       181250 200  600 200   0
14      -181250 200  600 200   0
15       164706 150  700 150   0
16      -164706 150  700 150   0
17       158824 150  700 150   0
18      -158824 150  700 150   0
19       152941 150  700 150   0
20      -152941 150  700 150   0
21       147059 150  700 150   0
22      -147059 150  700 150   0
23       141176 150  700 150   0
24      -141176 150  700 150   0
25       135294 150  700 150   0
26      -135294 150  700 150   0
27       129412 150  700 150   0
28      -129412 150  700 150   0
29       123529 150  700 150   0
30      -123529 150  700 150   0
31       117647 150  700 150   0
32      -117647 150  700 150   0
33       111765 150  700 150   0
34      -111765 150  700 150   0
35       105882 150  700 150   0
36      -105882 150  700 150   0
37       100000 150  700 150   0
38      -100000 150  700 150   0
39      94117.6 150  700 150   0
40     -94117.6 150  700 150   0
41      88235.3 150  700 150   0
42     -88235.3 150  700 150   0
43      82352.9 150  700 150   0
44     -82352.9 150  700 150   0
45      76470.6 150  700 150   0
46     -76470.6 150  700 150   0
47      66666.7 100  800 100   0
48     -66666.7 100  800 100   0
49      61111.1 100  800 100   0
50     -61111.1 100  800 100   0
51      55555.6 100  800 100   0
52     -55555.6 100  800 100   0
53        50000 100  800 100   0
54       -50000 100  800 100   0
55      44444.4 100  800 100   0
56     -44444.4 100  800 100   0
57      38888.9 100  800 100   0
58     -38888.9 100  800 100   0
59      33333.3 100  800 100   0
60     -33333.3 100  800 100   0
61      27777.8 100  800 100   0
62     -27777.8 100  800 100   0
63      22222.2 100  800 100   0
64     -22222.2 100  800 100   0
65      15789.5  50  900  50   0
66     -15789.5  50  900  50   0
67      10526.3  50  900  50   0
68     -10526.3  50  900  50   0
69      5263.16  50  900  50   0
70     -5263.16  50  900  50   0
71            0  50  900  50   0

# Format of ADC events:
# id num dwell delay freq phase
# ..  ..    ns    us   Hz   rad
[ADC]
1 64 100000 50 0 0
2 64 100000 50 0 2.04204
3 64 100000 50 0 6.12611
4 64 100000 50 0 5.96903
5 64 100000 50 0 1.5708
6 64 100000 50 0 5.49779
7 64 100000 50 0 5.18363
8 64 100000 50 0 0.628319
9 64 100000 50 0 4.39823
10 64 100000 50 0 3.92699
11 64 100000 50 0 2.82743
12 64 100000 50 0 2.19911
13 64 100000 50 0 3.61283
14 64 100000 50 0 0.785398
15 64 100000 50 0 1.25664
16 64 100000 50 0 4.55531
17 64 100000 50 0 4.71239
18 64 100000 50 0 0.471239
19 64 100000 50 0 1.41372
20 64 100000 50 0 3.14159
21 64 100000 50 0 5.34071
22 64 100000 50 0 2.35619
23 64 100000 50 0 3.76991
24 64 100000 50 0 2.98451

# Format of extension lists:
# id type ref next_id
# next_id of 0 terminates the list
# Extension list is followed by extension specifications
[EXTENSIONS]
1 1 1 0
2 2 1 0
3 1 2 0
4 2 2 3

# Extension specification for setting labels:
# id set labelstring
extension LABELSET 1
1 1 REV
2 0 LIN

# Extension specification for setting labels:
# id set labelstring
extension LABELINC 2
1 1 LIN
2 1 SLC

# Sequence Shapes
[SHAPES]

shape_id 1
num_samples 1024
0
1e-07
0
0
5
1e-07
0
0
1
1e-07
0
0
0
1e-07
0
1e-07
0
1e-07
1e-07
4
2e-07
1e-07
2e-07
2e-07
2
3e-07
3e-07
1
4e-07
4e-07
0
5e-07
5e-07
1
7e-07
7e-07
1
9e-07
9e-07
0
1e-06
1.1e-06
1.3e-06
1.3e-06
0
1.6e-06
1.6e-06
0
1.8e-06
2e-06
2.2e-06
2.4e-06
2.7e-06
2.9e-06
3.2e-06
3.4e-06
3.8e-06
4.1e-06
4.6e-06
4.9e-06
5.4e-06
5.8e-06
6.4e-06
7e-06
7.5e-06
8.3e-06
8.9e-06
9.7e-06
1.05e-05
1.14e-05
1.24e-05
1.34e-05
1.45e-05
1.56e-05
1.7e-05
1.83e-05
1.98e-05
2.13e-05
2.3e-05
2.48e-05
2.68e-05
2.88e-05
3.09e-05
3.33e-05
3.58e-05
3.84e-05
4.13e-05
4.43e-05
4.75e-05
5.09e-05
5.45e-05
5.83e-05
6.25e-05
6.67e-05
7.14e-05
7.62e-05
8.14e-05
8.68e-05
9.26e-05
9.87e-05
0.0001052
0.0001119
0.0001192
0.0001267
0.0001347
0.0001431
0.000152
0.0001613
0.0001711
0.0001814
0.0001923
0.0002037
0.0002156
0.0002282
0.0002413
0.000255
0.0002695
0.0002846
0.0003004
0.0003169
0.0003342
0.0003522
0.0003711
0.0003907
0.0004111
0.0004326
0.0004548
0.0004779
0.0005021
0.0005271
0.0005532
0.0005804
0.0006084
0.0006377
0.000668
0.0006995
0.000732
0.0007657
0.0008008
0.0008369
0.0008743
0.000913
0.0009529
0.0009943
0.0010369
0.0010808
0.0011263
0.0011729
0.0012212
0.0012707
0.0013218
0.0013743
0.0014283
0.0014838
0.0015408
0.0015993
0.0016594
0.001721
0.0017841
0.0018488
0.0019151
0.0019829
0.0020523
0.0021232
0.0021957
0.0022698
0.0023454
0.0024226
0.0025013
0.0025814
0.0026632
0.0027464
0.0028311
0.0029172
0.0030048
0.0030937
0.003184
0.0032758
0.0033687
0.0034629
0.0035584
0.0036551
0.003753
0.0038518
0.0039518
0.0040527
0.0041546
0.0042574
0.0043609
0.0044653
0.0045702
0.0046759
0.004782
0.0048886
0.0049955
0.0051028
0.0052102
0.0053179
0.0054254
0.0055329
0.0056402
0.0057473
0.005854
0.0059602
0.0060659
0.0061707
0.0062749
0.006378
0.0064802
0.0065812
0.0066809
0.0067792
0.0068761
0.0069712
0.0070646
0.0071562
0.0072457
0.0073331
0.0074183
0.0075011
0.0075815
0.0076592
0.0077342
0.0078065
0.0078757
0.007942
0.0080051
0.0080649
0.0081214
0.0081744
0.008224
0.0082698
0.0083121
0.0083506
0.0083851
0.0084158
0.0084426
0.0084652
0.008484
0.0084985
0.0085089
0.0085152
0.0085173
0.0085151
0.008509
0.0084984
0.0084838
0.0084649
0.008442
0.008415
0.0083838
0.0083487
0.0083095
0.0082666
0.0082197
0.008169
0.0081147
0.0080567
0.0079953
0.0079305
0.0078622
0.0077908
0.0077163
0.0076388
0.0075583
0.0074753
0.0073894
0.0073012
0.0072105
0.0071176
0.0070226
0.0069257
0.0068268
0.0067263
0.0066242
0.0065207
0.0064158
0.0063098
0.0062029
0.0060948
0.0059862
0.0058769
0.0057669
0.0056568
0.0055462
0.0054355
0.0053247
0.0052141
0.0051037
0.0049934
0.0048836
0.0047742
0.0046655
0.0045573
0.00445
0.0043434
0.0042378
0.0041331
0.0040295
0.003927
0.0038256
0.0037255
0.0036266
0.0035291
0.003433
0.0033383
0.0032449
0.0031532
0.0030629
0.0029742
0.002887
0.0028014
0.0027174
0.0026351
0.0025544
0.0024753
0.0023979
0.0023221
0.0022479
0.0021755
0.0021047
0.0020355
0.0019679
0.0019021
0.0018377
0.0017751
0.0017139
0.0016545
0.0015965
0.0015401
0.0014852
0.0014319
0.0013799
0.0013295
0.0012806
0.001233
0.0011868
0.001142
0.0010986
0.0010564
0.0010156
0.0009761
0.0009377
0.0009007
0.0008647
0.0008301
0.0007964
0.000764
0.0007326
0.0007022
0.000673
0.0006448
0.0006174
0.0005911
0.0005657
0.0005413
0.0005177
0.0004949
0.000473
0.000452
0.0004317
0.0004121
0.0003934
0.0003754
0.0003579
0.0003413
0.0003253
0.00031
0.0002951
0.000281
0.0002675
0.0002544
0.0002419
0.00023
0.0002185
0.0002075
0.000197
0.000187
0.0001774
0.0001683
0.0001594
0.0001511
0.000143
0.0001354
0.0001281
0.0001212
0.0001146
0.0001082
0.0001022
9.65e-05
9.1e-05
8.59e-05
8.09e-05
7.62e-05
7.18e-05
6.75e-05
6.35e-05
5.97e-05
5.61e-05
5.27e-05
4.94e-05
4.64e-05
4.34e-05
4.08e-05
3.81e-05
3.56e-05
3.33e-05
3.12e-05
2.91e-05
2.71e-05
2.53e-05
2.36e-05
2.19e-05
2.05e-05
1.89e-05
1.77e-05
1.64e-05
1.52e-05
1.4e-05
1.31e-05
1.2e-05
1.12e-05
1.03e-05
9.5e-06
8.7e-06
8.1e-06
7.4e-06
6.8e-06
6.3e-06
5.7e-06
5.3e-06
4.8e-06
4.4e-06
4e-06
3.7e-06
3.3e-06
3.1e-06
2.7e-06
2.5e-06
2.3e-06
2.1e-06
1.8e-06
1.7e-06
1.5e-06
1.4e-06
1.2e-06
1.1e-06
9e-07
9e-07
0
8e-07
7e-07
6e-07
5e-07
5e-07
1
3e-07
4e-07
2e-07
3e-07
2e-07
2e-07
1
1e-07
1e-07
4
0
1e-07
0
1e-07
0
0
2
1e-07
0
0
64
-1e-07
0
0
2
-1e-07
-0
-1e-07
0
-1e-07
-1e-07
4
-2e-07
-2e-07
1
-3e-07
-2e-07
-4e-07
-3e-07
-5e-07
-5e-07
1
-6e-07
-7e-07
-8e-07
-9e-07
-9e-07
0
-1.1e-06
-1.2e-06
-1.4e-06
-1.5e-06
-1.7e-06
-1.8e-06
-2.1e-06
-2.3e-06
-2.5e-06
-2.7e-06
-3.1e-06
-3.3e-06
-3.7e-06
-4e-06
-4.4e-06
-4.8e-06
-5.3e-06
-5.7e-06
-6.3e-06
-6.8e-06
-7.4e-06
-8.1e-06
-8.7e-06
-9.5e-06
-1.03e-05
-1.12e-05
-1.2e-05
-1.31e-05
-1.4e-05
-1.52e-05
-1.64e-05
-1.77e-05
-1.89e-05
-2.05e-05
-2.19e-05
-2.36e-05
-2.53e-05
-2.71e-05
-2.91e-05
-3.12e-05
-3.33e-05
-3.56e-05
-3.81e-05
-4.08e-05
-4.34e-05
-4.64e-05
-4.94e-05
-5.27e-05
-5.61e-05
-5.97e-05
-6.35e-05
-6.75e-05
-7.18e-05
-7.62e-05
-8.09e-05
-8.59e-05
-9.1e-05
-9.65e-05
-0.0001022
-0.0001082
-0.0001146
-0.0001212
-0.0001281
-0.0001354
-0.000143
-0.0001511
-0.0001594
-0.0001683
-0.0001774
-0.000187
-0.000197
-0.0002075
-0.0002185
-0.00023
-0.0002419
-0.0002544
-0.0002675
-0.000281
-0.0002951
-0.00031
-0.0003253
-0.0003413
-0.0003579
-0.0003754
-0.0003934
-0.0004121
-0.0004317
-0.000452
-0.000473
-0.0004949
-0.0005177
-0.0005413
-0.0005657
-0.0005911
-0.0006174
-0.0006448
-0.000673
-0.0007022
-0.0007326
-0.000764
-0.0007964
-0.0008301
-0.0008647
-0.0009007
-0.0009377
-0.0009761
-0.0010156
-0.0010564
-0.0010986
-0.001142
-0.0011868
-0.001233
-0.0012806
-0.0013295
-0.0013799
-0.0014319
-0.0014852
-0.0015401
-0.0015965
-0.0016545
-0.0017139
-0.0017751
-0.0018377
-0.0019021
-0.0019679
-0.0020355
-0.0021047
-0.0021755
-0.0022479
-0.0023221
-0.0023979
-0.0024753
-0.0025544
-0.0026351
-0.0027174
-0.0028014
-0.002887
-0.0029742
-0.0030629
-0.0031532
-0.0032449
-0.0033383
-0.003433
-0.0035291
-0.0036266
-0.0037255
-0.0038256
-0.003927
-0.0040295
-0.0041331
-0.0042378
-0.0043434
-0.00445
-0.0045573
-0.0046655
-0.0047742
-0.0048836
-0.0049934
-0.0051037
-0.0052141
-0.0053247
-0.0054355
-0.0055462
-0.0056568
-0.0057669
-0.0058769
-0.0059862
-0.0060948
-0.0062029
-0.0063098
-0.0064158
-0.0065207
-0.0066242
-0.0067263
-0.0068268
-0.0069257
-0.0070226
-0.0071176
-0.0072105
-0.0073012
-0.0073894
-0.0074753
-0.0075583
-0.0076388
-0.0077163
-0.0077908
-0.0078622
-0.0079305
-0.0079953
-0.0080567
-0.0081147
-0.008169
-0.0082197
-0.0082666
-0.0083095
-0.0083487
-0.0083838
-0.008415
-0.008442
-0.0084649
-0.0084838
-0.0084984
-0.008509
-0.0085151
-0.0085173
-0.0085152
-0.0085089
-0.0084985
-0.008484
-0.0084652
-0.0084426
-0.0084158
-0.0083851
-0.0083506
-0.0083121
-0.0082698
-0.008224
-0.0081744
-0.0081214
-0.0080649
-0.0080051
-0.007942
-0.0078757
-0.0078065
-0.0077342
-0.0076592
-0.0075815
-0.0075011
-0.0074183
-0.0073331
-0.0072457
-0.0071562
-0.0070646
-0.0069712
-0.0068761
-0.0067792
-0.0066809
-0.0065812
-0.0064802
-0.006378
-0.0062749
-0.0061707
-0.0060659
-0.0059602
-0.005854
-0.0057473
-0.0056402
-0.0055329
-0.0054254
-0.0053179
-0.0052102
-0.0051028
-0.0049955
-0.0048886
-0.004782
-0.0046759
-0.0045702
-0.0044653
-0.0043609
-0.0042574
-0.0041546
-0.0040527
-0.0039518
-0.0038518
-0.003753
-0.0036551
-0.0035584
-0.0034629
-0.0033687
-0.0032758
-0.003184
-0.0030937
-0.0030048
-0.0029172
-0.0028311
-0.0027464
-0.0026632
-0.0025814
-0.0025013
-0.0024226
-0.0023454
-0.0022698
-0.0021957
-0.0021232
-0.0020523
-0.0019829
-0.0019151
-0.0018488
-0.0017841
-0.001721
-0.0016594
-0.0015993
-0.0015408
-0.0014838
-0.0014283
-0.0013743
-0.0013218
-0.0012707
-0.0012212
-0.0011729
-0.0011263
-0.0010808
-0.0010369
-0.0009943
-0.0009529
-0.000913
-0.0008743
-0.0008369
-0.0008008
-0.0007657
-0.000732
-0.0006995
-0.000668
-0.0006377
-0.0006084
-0.0005804
-0.0005532
-0.0005271
-0.0005021
-0.0004779
-0.0004548
-0.0004326
-0.0004111
-0.0003907
-0.0003711
-0.0003522
-0.0003342
-0.0003169
-0.0003004
-0.0002846
-0.0002695
-0.000255
-0.0002413
-0.0002282
-0.0002156
-0.0002037
-0.0001923
-0.0001814
-0.0001711
-0.0001613
-0.000152
-0.0001431
-0.0001347
-0.0001267
-0.0001192
-0.0001119
-0.0001052
-9.87e-05
-9.26e-05
-8.68e-05
-8.14e-05
-7.62e-05
-7.14e-05
-6.67e-05
-6.25e-05
-5.83e-05
-5.45e-05
-5.09e-05
-4.75e-05
-4.43e-05
-4.13e-05
-3.84e-05
-3.58e-05
-3.33e-05
-3.09e-05
-2.88e-05
-2.68e-05
-2.48e-05
-2.3e-05
-2.13e-05
-1.98e-05
-1.83e-05
-1.7e-05
-1.56e-05
-1.45e-05
-1.34e-05
-1.24e-05
-1.14e-05
-1.05e-05
-9.7e-06
-8.9e-06
-8.3e-06
-7.5e-06
-7e-06
-6.4e-06
-5.8e-06
-5.4e-06
-4.9e-06
-4.6e-06
-4.1e-06
-3.8e-06
-3.4e-06
-3.2e-06
-2.9e-06
-2.7e-06
-2.4e-06
-2.2e-06
-2e-06
-1.8e-06
-1.6e-06
-1.6e-06
0
-1.3e-06
-1.3e-06
0
-1.1e-06
-1e-06
-9e-07
-9e-07
0
-7e-07
-7e-07
1
-5e-07
-5e-07
1
-4e-07
-4e-07
0
-3e-07
-3e-07
1
-2e-07
-2e-07
2
-1e-07
-2e-07
-1e-07
-1e-07
4
0
-1e-07
0
-1e-07
0
0
0
-1e-07
0
0
1
-1e-07
0
0
5

shape_id 2
num_samples 1024
0.583498764
0.589737638
0.595976512
0.602215385
0.608454259
0.614693133
0.620932007
0.62717088
0.633409754
0.639648628
0.645887502
0.652126375
0.658365249
0.664604123
0.670842997
0.677081871
0.683320744
0.689559618
0.695798492
0.702037366
0.708276239
0.714515113
0.720753987
0.726992861
0.733231734
0.739470608
0.745709482
0.751948356
0.75818723
0.764426103
0.770664977
0.776903851
0.783142725
0.789381598
0.795620472
0.801859346
0.80809822
0.814337093
0.820575967
0.826814841
0.833053715
0.839292589
0.845531462
0.851770336
0.85800921
0.864248084
0.870486957
0.876725831
0.882964705
0.889203579
0.895442452
0.901681326
0.9079202
0.914159074
0.920397948
0.926636821
0.932875695
0.939114569
0.945353443
0.951592316
0.95783119
0.964070064
0.970308938
0.976547811
0.982786685
0.989025559
0.995264433
0.00150330653
0.00774218029
0.0139810541
0.0202199278
0.0264588016
0.0326976754
0.0389365491
0.0451754229
0.0514142967
0.0576531704
0.0638920442
0.0701309179
0.0763697917
0.0826086655
0.0888475392
0.095086413
0.101325287
0.10756416
0.113803034
0.120041908
0.126280782
0.132519655
0.138758529
0.144997403
0.151236277
0.15747515
0.163714024
0.169952898
0.176191771
0.182430645
0.188669518
0.194908392
0.201147265
0.207386139
0.213625012
0.219863886
0.226102759
0.232341632
0.238580505
0.244819378
0.251058251
0.257297124
0.263535997
0.26977487
0.276013742
0.282252614
0.288491486
0.294730358
0.300969229
0.3072081
0.31344697
0.31968584
0.32592471
0.332163579
0.338402447
0.344641315
0.350880182
0.357119048
0.363357912
0.369596776
0.375835638
0.382074499
0.388313358
0.394552215
0.40079107
0.407029922
0.413268772
0.419507619
0.425746463
0.431985302
0.438224138
0.444462969
0.450701795
0.456940615
0.463179429
0.469418236
0.475657035
0.481895825
0.488134606
0.494373376
0.500612134
0.50685088
0.513089611
0.519328326
0.525567024
0.531805703
0.538044361
0.544282996
0.550521606
0.556760188
0.562998739
0.569237257
0.575475739
0.58171418
0.587952578
0.594190928
0.600429226
0.606667468
0.612905647
0.61914376
0.625381799
0.631619758
0.637857631
0.64409541
0.650333087
0.656570653
0.6628081
0.669045417
0.675282595
0.68151962
0.687756483
0.693993168
0.700229663
0.706465953
0.712702022
0.718937853
0.725173428
0.731408727
0.737643731
0.743878418
0.750112765
0.756346746
0.762580337
0.768813509
0.775046234
0.78127848
0.787510214
0.793741403
0.799972009
0.806201995
0.812431318
0.818659937
0.824887806
0.831114877
0.8373411
0.843566423
0.849790791
0.856014144
0.862236424
0.868457564
0.8746775
0.88089616
0.887113471
0.893329358
0.89954374
0.905756535
0.911967654
0.918177008
0.924384502
0.930590038
0.936793515
0.942994827
0.949193863
0.955390509
0.961584648
0.967776157
0.973964909
0.980150774
0.986333615
0.992513294
0.998689666
0.00486258176
0.011031889
0.0171974298
0.0233590419
0.0295165586
0.0356698088
0.0418186167
0.0479628022
0.0541021807
0.0602365632
0.0663657564
0.0724895626
0.07860778
0.0847202024
0.0908266197
0.0969268177
0.103020578
0.10910768
0.115187896
0.121260999
0.127326755
0.133384928
0.13943528
0.145477567
0.151511545
0.157536967
0.16355358
0.169561134
0.175559372
0.181548037
0.187526871
0.193495612
0.199453999
0.205401767
0.211338653
0.21726439
0.223178711
0.229081351
0.234972041
0.240850514
0.246716503
0.252569741
0.25840996
0.264236894
0.270050279
0.275849849
0.281635341
0.287406494
0.293163046
0.298904739
0.304631316
0.310342521
0.316038103
0.32171781
0.327381394
0.333028609
0.338659214
0.344272966
0.34986963
0.35544897
0.361010756
0.36655476
0.372080758
0.377588528
0.383077852
0.388548517
0.394000311
0.399433028
0.404846465
0.410240422
0.415614704
0.420969119
0.426303478
0.431617598
0.436911298
0.442184403
0.447436738
0.452668137
0.457878434
0.463067468
0.468235082
0.473381123
0.478505442
0.483607893
0.488688335
0.493746628
0.49878264
0.503796238
0.508787296
0.513755691
0.518701301
0.523624011
0.528523707
0.533400279
0.53825362
0.543083628
0.547890201
0.552673243
0.557432661
0.562168361
0.566880258
0.571568265
0.5762323
0.580872283
0.585488138
0.59007979
0.594647168
0.599190201
0.603708824
0.608202971
0.612672581
0.617117594
0.621537952
0.6259336
0.630304483
0.634650551
0.638971754
0.643268044
0.647539376
0.651785705
0.65600699
0.660203189
0.664374264
0.668520178
0.672640894
0.676736378
0.680806597
0.684851519
0.688871114
0.692865354
0.69683421
0.700777656
0.704695667
0.708588218
0.712455285
0.716296847
0.720112883
0.723903373
0.727668296
0.731407634
0.735121371
0.738809489
0.742471972
0.746108806
0.749719974
0.753305465
0.756865264
0.760399359
0.763907739
0.767390391
0.770847306
0.774278473
0.777683882
0.781063525
0.784417392
0.787745475
0.791047767
0.79432426
0.797574947
0.800799822
0.803998877
0.807172108
0.810319509
0.813441074
0.816536799
0.819606678
0.822650708
0.825668883
0.828661201
0.831627657
0.834568248
0.83748297
0.840371821
0.843234798
0.846071898
0.848883118
0.851668456
0.854427909
0.857161476
0.859869155
0.862550943
0.86520684
0.867836843
0.87044095
0.873019162
0.875571475
0.878097889
0.880598404
0.883073017
0.885521727
0.887944535
0.890341439
0.892712438
0.895057531
0.897376718
0.899669999
0.901937372
0.904178837
0.906394393
0.908584041
0.91074778
0.912885609
0.914997528
0.917083536
0.919143634
0.921177821
0.923186097
0.925168462
0.927124915
0.929055456
0.930960085
0.932838802
0.934691607
0.936518499
0.938319479
0.940094546
0.941843701
0.943566943
0.945264272
0.946935688
0.948581191
0.950200781
0.951794457
0.953362221
0.954904071
0.956420009
0.957910033
0.959374143
0.960812341
0.962224625
0.963610995
0.964971453
0.966305996
0.967614627
0.968897344
0.970154148
0.971385038
0.972590015
0.973769078
0.974922228
0.976049464
0.977150787
0.978226196
0.979275692
0.980299275
0.981296944
0.9822687
0.983214542
0.98413447
0.985028485
0.985896587
0.986738775
0.98755505
0.988345411
0.989109859
0.989848393
0.990561014
0.991247721
0.991908515
0.992543395
0.993152362
0.993735416
0.994292555
0.994823782
0.995329095
0.995808494
0.99626198
0.996689553
0.997091212
