# Pulseq sequence file
# Created by PyPulseq

[VERSION]
major 1
minor 4
revision 2

[DEFINITIONS]
AdcRasterTime 1e-07 
BlockDurationRaster 1e-05 
FOV 0.2 0.2 0.005 
GradientRasterTime 1e-05 
Nphase 32 
Nread 32 
RadiofrequencyRasterTime 1e-06 
TotalDuration 16.04512 

# Format of blocks:
# NUM DUR RF  GX  GY  GZ  ADC  EXT
[BLOCKS]
  1   0   0   0   0   0  0  1
  2 1036   1   0   0   0  0  0
  3  90   0   1   1   2  0  0
  4 1036   1   0   0   0  0  0
  5 809   0   1   1   2  0  0
  6 130   2   0   0   3  0  0
  7 100   0   4   5   6  0  0
  8 170   0   0   0   0  0  0
  9 330   0   7   0   0  1  0
 10 46440   0   1   8   2  0  2
 11 1036   3   0   0   0  0  0
 12  90   0   1   1   2  0  0
 13 1036   3   0   0   0  0  0
 14 809   0   1   1   2  0  0
 15 130   4   0   0   3  0  0
 16 100   0   4   9   6  0  0
 17 170   0   0   0   0  0  0
 18 330   0   7   0   0  2  0
 19 46440   0   1  10   2  0  2
 20 1036   5   0   0   0  0  0
 21  90   0   1   1   2  0  0
 22 1036   5   0   0   0  0  0
 23 809   0   1   1   2  0  0
 24 130   6   0   0   3  0  0
 25 100   0   4  11   6  0  0
 26 170   0   0   0   0  0  0
 27 330   0   7   0   0  3  0
 28 46440   0   1  12   2  0  2
 29 1036   7   0   0   0  0  0
 30  90   0   1   1   2  0  0
 31 1036   7   0   0   0  0  0
 32 809   0   1   1   2  0  0
 33 130   8   0   0   3  0  0
 34 100   0   4  13   6  0  0
 35 170   0   0   0   0  0  0
 36 330   0   7   0   0  4  0
 37 46440   0   1  14   2  0  2
 38 1036   9   0   0   0  0  0
 39  90   0   1   1   2  0  0
 40 1036   9   0   0   0  0  0
 41 809   0   1   1   2  0  0
 42 130  10   0   0   3  0  0
 43 100   0   4  15   6  0  0
 44 170   0   0   0   0  0  0
 45 330   0   7   0   0  5  0
 46 46440   0   1  16   2  0  2
 47 1036  11   0   0   0  0  0
 48  90   0   1   1   2  0  0
 49 1036  11   0   0   0  0  0
 50 809   0   1   1   2  0  0
 51 130  12   0   0   3  0  0
 52 100   0   4  17   6  0  0
 53 170   0   0   0   0  0  0
 54 330   0   7   0   0  6  0
 55 46440   0   1  18   2  0  2
 56 1036  13   0   0   0  0  0
 57  90   0   1   1   2  0  0
 58 1036  13   0   0   0  0  0
 59 809   0   1   1   2  0  0
 60 130  14   0   0   3  0  0
 61 100   0   4  19   6  0  0
 62 170   0   0   0   0  0  0
 63 330   0   7   0   0  7  0
 64 46440   0   1  20   2  0  2
 65 1036  15   0   0   0  0  0
 66  90   0   1   1   2  0  0
 67 1036  15   0   0   0  0  0
 68 809   0   1   1   2  0  0
 69 130  16   0   0   3  0  0
 70 100   0   4  21   6  0  0
 71 170   0   0   0   0  0  0
 72 330   0   7   0   0  8  0
 73 46440   0   1  22   2  0  2
 74 1036  17   0   0   0  0  0
 75  90   0   1   1   2  0  0
 76 1036  17   0   0   0  0  0
 77 809   0   1   1   2  0  0
 78 130  18   0   0   3  0  0
 79 100   0   4  23   6  0  0
 80 170   0   0   0   0  0  0
 81 330   0   7   0   0  9  0
 82 46440   0   1  24   2  0  2
 83 1036  19   0   0   0  0  0
 84  90   0   1   1   2  0  0
 85 1036  19   0   0   0  0  0
 86 809   0   1   1   2  0  0
 87 130  20   0   0   3  0  0
 88 100   0   4  25   6  0  0
 89 170   0   0   0   0  0  0
 90 330   0   7   0   0 10  0
 91 46440   0   1  26   2  0  2
 92 1036  11   0   0   0  0  0
 93  90   0   1   1   2  0  0
 94 1036  11   0   0   0  0  0
 95 809   0   1   1   2  0  0
 96 130  12   0   0   3  0  0
 97 100   0   4  27   6  0  0
 98 170   0   0   0   0  0  0
 99 330   0   7   0   0  6  0
100 46440   0   1  28   2  0  2
101 1036  21   0   0   0  0  0
102  90   0   1   1   2  0  0
103 1036  21   0   0   0  0  0
104 809   0   1   1   2  0  0
105 130  22   0   0   3  0  0
106 100   0   4  29   6  0  0
107 170   0   0   0   0  0  0
108 330   0   7   0   0 11  0
109 46440   0   1  30   2  0  2
110 1036  23   0   0   0  0  0
111  90   0   1   1   2  0  0
112 1036  23   0   0   0  0  0
113 809   0   1   1   2  0  0
114 130  24   0   0   3  0  0
115 100   0   4  31   6  0  0
116 170   0   0   0   0  0  0
117 330   0   7   0   0 12  0
118 46440   0   1  32   2  0  2
119 1036  25   0   0   0  0  0
120  90   0   1   1   2  0  0
121 1036  25   0   0   0  0  0
122 809   0   1   1   2  0  0
123 130  26   0   0   3  0  0
124 100   0   4  33   6  0  0
125 170   0   0   0   0  0  0
126 330   0   7   0   0 13  0
127 46440   0   1  34   2  0  2
128 1036  27   0   0   0  0  0
129  90   0   1   1   2  0  0
130 1036  27   0   0   0  0  0
131 809   0   1   1   2  0  0
132 130  28   0   0   3  0  0
133 100   0   4  35   6  0  0
134 170   0   0   0   0  0  0
135 330   0   7   0   0 14  0
136 46440   0   1  36   2  0  2
137 1036   1   0   0   0  0  0
138  90   0   1   1   2  0  0
139 1036   1   0   0   0  0  0
140 809   0   1   1   2  0  0
141 130   2   0   0   3  0  0
142 100   0   4  37   6  0  0
143 170   0   0   0   0  0  0
144 330   0   7   0   0  1  0
145 46440   0   1  38   2  0  2
146 1036  29   0   0   0  0  0
147  90   0   1   1   2  0  0
148 1036  29   0   0   0  0  0
149 809   0   1   1   2  0  0
150 130  30   0   0   3  0  0
151 100   0   4  39   6  0  0
152 170   0   0   0   0  0  0
153 330   0   7   0   0 15  0
154 46440   0   1  39   2  0  2
155 1036  31   0   0   0  0  0
156  90   0   1   1   2  0  0
157 1036  31   0   0   0  0  0
158 809   0   1   1   2  0  0
159 130  32   0   0   3  0  0
160 100   0   4  38   6  0  0
161 170   0   0   0   0  0  0
162 330   0   7   0   0 16  0
163 46440   0   1  37   2  0  2
164 1036  25   0   0   0  0  0
165  90   0   1   1   2  0  0
166 1036  25   0   0   0  0  0
167 809   0   1   1   2  0  0
168 130  26   0   0   3  0  0
169 100   0   4  36   6  0  0
170 170   0   0   0   0  0  0
171 330   0   7   0   0 13  0
172 46440   0   1  35   2  0  2
173 1036  33   0   0   0  0  0
174  90   0   1   1   2  0  0
175 1036  33   0   0   0  0  0
176 809   0   1   1   2  0  0
177 130  34   0   0   3  0  0
178 100   0   4  34   6  0  0
179 170   0   0   0   0  0  0
180 330   0   7   0   0 17  0
181 46440   0   1  33   2  0  2
182 1036   9   0   0   0  0  0
183  90   0   1   1   2  0  0
184 1036   9   0   0   0  0  0
185 809   0   1   1   2  0  0
186 130  10   0   0   3  0  0
187 100   0   4  32   6  0  0
188 170   0   0   0   0  0  0
189 330   0   7   0   0  5  0
190 46440   0   1  31   2  0  2
191 1036  35   0   0   0  0  0
192  90   0   1   1   2  0  0
193 1036  35   0   0   0  0  0
194 809   0   1   1   2  0  0
195 130  36   0   0   3  0  0
196 100   0   4  30   6  0  0
197 170   0   0   0   0  0  0
198 330   0   7   0   0 18  0
199 46440   0   1  29   2  0  2
200 1036  37   0   0   0  0  0
201  90   0   1   1   2  0  0
202 1036  37   0   0   0  0  0
203 809   0   1   1   2  0  0
204 130  38   0   0   3  0  0
205 100   0   4  28   6  0  0
206 170   0   0   0   0  0  0
207 330   0   7   0   0 19  0
208 46440   0   1  27   2  0  2
209 1036  17   0   0   0  0  0
210  90   0   1   1   2  0  0
211 1036  17   0   0   0  0  0
212 809   0   1   1   2  0  0
213 130  18   0   0   3  0  0
214 100   0   4  26   6  0  0
215 170   0   0   0   0  0  0
216 330   0   7   0   0  9  0
217 46440   0   1  25   2  0  2
218 1036  39   0   0   0  0  0
219  90   0   1   1   2  0  0
220 1036  39   0   0   0  0  0
221 809   0   1   1   2  0  0
222 130  40   0   0   3  0  0
223 100   0   4  24   6  0  0
224 170   0   0   0   0  0  0
225 330   0   7   0   0 20  0
226 46440   0   1  23   2  0  2
227 1036  19   0   0   0  0  0
228  90   0   1   1   2  0  0
229 1036  19   0   0   0  0  0
230 809   0   1   1   2  0  0
231 130  20   0   0   3  0  0
232 100   0   4  22   6  0  0
233 170   0   0   0   0  0  0
234 330   0   7   0   0 10  0
235 46440   0   1  21   2  0  2
236 1036  35   0   0   0  0  0
237  90   0   1   1   2  0  0
238 1036  35   0   0   0  0  0
239 809   0   1   1   2  0  0
240 130  36   0   0   3  0  0
241 100   0   4  20   6  0  0
242 170   0   0   0   0  0  0
243 330   0   7   0   0 18  0
244 46440   0   1  19   2  0  2
245 1036  41   0   0   0  0  0
246  90   0   1   1   2  0  0
247 1036  41   0   0   0  0  0
248 809   0   1   1   2  0  0
249 130  42   0   0   3  0  0
250 100   0   4  18   6  0  0
251 170   0   0   0   0  0  0
252 330   0   7   0   0 21  0
253 46440   0   1  17   2  0  2
254 1036   7   0   0   0  0  0
255  90   0   1   1   2  0  0
256 1036   7   0   0   0  0  0
257 809   0   1   1   2  0  0
258 130   8   0   0   3  0  0
259 100   0   4  16   6  0  0
260 170   0   0   0   0  0  0
261 330   0   7   0   0  4  0
262 46440   0   1  15   2  0  2
263 1036  43   0   0   0  0  0
264  90   0   1   1   2  0  0
265 1036  43   0   0   0  0  0
266 809   0   1   1   2  0  0
267 130  44   0   0   3  0  0
268 100   0   4  14   6  0  0
269 170   0   0   0   0  0  0
270 330   0   7   0   0 22  0
271 46440   0   1  13   2  0  2
272 1036  27   0   0   0  0  0
273  90   0   1   1   2  0  0
274 1036  27   0   0   0  0  0
275 809   0   1   1   2  0  0
276 130  28   0   0   3  0  0
277 100   0   4  12   6  0  0
278 170   0   0   0   0  0  0
279 330   0   7   0   0 14  0
280 46440   0   1  11   2  0  2
281 1036  29   0   0   0  0  0
282  90   0   1   1   2  0  0
283 1036  29   0   0   0  0  0
284 809   0   1   1   2  0  0
285 130  30   0   0   3  0  0
286 100   0   4  10   6  0  0
287 170   0   0   0   0  0  0
288 330   0   7   0   0 15  0
289 46440   0   1   9   2  0  4

# Format of RF events:
# id amplitude mag_id phase_id time_shape_id delay freq phase
# ..        Hz   ....     ....          ....    us   Hz   rad
[RF]
1      845.778 1 2 3 100 0 0
2      329.149 4 5 0 150 0 0
3      845.778 1 2 3 100 0 2.04204
4      329.149 4 5 0 150 0 2.04204
5      845.778 1 2 3 100 0 6.12611
6      329.149 4 5 0 150 0 6.12611
7      845.778 1 2 3 100 0 5.96903
8      329.149 4 5 0 150 0 5.96903
9      845.778 1 2 3 100 0 1.5708
10      329.149 4 5 0 150 0 1.5708
11      845.778 1 2 3 100 0 5.49779
12      329.149 4 5 0 150 0 5.49779
13      845.778 1 2 3 100 0 5.18363
14      329.149 4 5 0 150 0 5.18363
15      845.778 1 2 3 100 0 0.628319
16      329.149 4 5 0 150 0 0.628319
17      845.778 1 2 3 100 0 4.39823
18      329.149 4 5 0 150 0 4.39823
19      845.778 1 2 3 100 0 3.92699
20      329.149 4 5 0 150 0 3.92699
21      845.778 1 2 3 100 0 2.82743
22      329.149 4 5 0 150 0 2.82743
23      845.778 1 2 3 100 0 2.19911
24      329.149 4 5 0 150 0 2.19911
25      845.778 1 2 3 100 0 3.61283
26      329.149 4 5 0 150 0 3.61283
27      845.778 1 2 3 100 0 0.785398
28      329.149 4 5 0 150 0 0.785398
29      845.778 1 2 3 100 0 1.25664
30      329.149 4 5 0 150 0 1.25664
31      845.778 1 2 3 100 0 4.55531
32      329.149 4 5 0 150 0 4.55531
33      845.778 1 2 3 100 0 4.71239
34      329.149 4 5 0 150 0 4.71239
35      845.778 1 2 3 100 0 0.471239
36      329.149 4 5 0 150 0 0.471239
37      845.778 1 2 3 100 0 1.41372
38      329.149 4 5 0 150 0 1.41372
39      845.778 1 2 3 100 0 3.14159
40      329.149 4 5 0 150 0 3.14159
41      845.778 1 2 3 100 0 5.34071
42      329.149 4 5 0 150 0 5.34071
43      845.778 1 2 3 100 0 2.35619
44      329.149 4 5 0 150 0 2.35619

# Format of trapezoid gradients:
# id amplitude rise flat fall delay
# ..      Hz/m   us   us   us    us
[TRAP]
 1  1.06667e+06 200  100 200   0
 2  1.14286e+06 200  500 200   0
 3       800000 150 1000 150   0
 4     -95588.2 150  700 150   0
 5      94117.6 150  700 150   0
 6      -575000 200  600 200   0
 7        50000  50 3200  50   0
 8     -94117.6 150  700 150   0
 9      88235.3 150  700 150   0
10     -88235.3 150  700 150   0
11      82352.9 150  700 150   0
12     -82352.9 150  700 150   0
13      76470.6 150  700 150   0
14     -76470.6 150  700 150   0
15      66666.7 100  800 100   0
16     -66666.7 100  800 100   0
17      61111.1 100  800 100   0
18     -61111.1 100  800 100   0
19      55555.6 100  800 100   0
20     -55555.6 100  800 100   0
21        50000 100  800 100   0
22       -50000 100  800 100   0
23      44444.4 100  800 100   0
24     -44444.4 100  800 100   0
25      38888.9 100  800 100   0
26     -38888.9 100  800 100   0
27      33333.3 100  800 100   0
28     -33333.3 100  800 100   0
29      27777.8 100  800 100   0
30     -27777.8 100  800 100   0
31      22222.2 100  800 100   0
32     -22222.2 100  800 100   0
33      15789.5  50  900  50   0
34     -15789.5  50  900  50   0
35      10526.3  50  900  50   0
36     -10526.3  50  900  50   0
37      5263.16  50  900  50   0
38     -5263.16  50  900  50   0
39            0  50  900  50   0

# Format of ADC events:
# id num dwell delay freq phase
# ..  ..    ns    us   Hz   rad
[ADC]
1 32 100000 50 0 0
2 32 100000 50 0 2.04204
3 32 100000 50 0 6.12611
4 32 100000 50 0 5.96903
5 32 100000 50 0 1.5708
6 32 100000 50 0 5.49779
7 32 100000 50 0 5.18363
8 32 100000 50 0 0.628319
9 32 100000 50 0 4.39823
10 32 100000 50 0 3.92699
11 32 100000 50 0 2.82743
12 32 100000 50 0 2.19911
13 32 100000 50 0 3.61283
14 32 100000 50 0 0.785398
15 32 100000 50 0 1.25664
16 32 100000 50 0 4.55531
17 32 100000 50 0 4.71239
18 32 100000 50 0 0.471239
19 32 100000 50 0 1.41372
20 32 100000 50 0 3.14159
21 32 100000 50 0 5.34071
22 32 100000 50 0 2.35619

# Format of extension lists:
# id type ref next_id
# next_id of 0 terminates the list
# Extension list is followed by extension specifications
[EXTENSIONS]
1 1 1 0
2 2 1 0
3 1 2 0
4 2 2 3

# Extension specification for setting labels:
# id set labelstring
extension LABELSET 1
1 1 REV
2 0 LIN

# Extension specification for setting labels:
# id set labelstring
extension LABELINC 2
1 1 LIN
2 1 SLC

# Sequence Shapes
[SHAPES]

shape_id 1
num_samples 1024
0.0332689869
0.0335360565
0.0338052677
0.0340766374
0.034350183
0.0346259218
0.0349038714
0.0351840494
0.0354664736
0.0357511619
0.0360381325
0.0363274036
0.0366189935
0.0369129207
0.0372092039
0.037507862
0.0378089138
0.0381123785
0.0384182752
0.0387266236
0.0390374429
0.0393507531
0.039666574
0.0399849255
0.0403058279
0.0406293015
0.0409553668
0.0412840445
0.0416153554
0.0419493204
0.0422859608
0.0426252977
0.0429673529
0.0433121477
0.0436597042
0.0440100443
0.0443631901
0.0447191639
0.0450779884
0.0454396862
0.0458042801
0.0461717932
0.0465422487
0.04691567
0.0472920807
0.0476715046
0.0480539656
0.0484394879
0.0488280958
0.0492198138
0.0496146666
0.0500126791
0.0504138764
0.0508182839
0.0512259269
0.0516368312
0.0520510227
0.0524685274
0.0528893716
0.0533135818
0.0537411847
0.0541722072
0.0546066763
0.0550446195
0.0554860642
0.0559310381
0.0563795693
0.0568316859
0.0572874161
0.0577467888
0.0582098326
0.0586765766
0.05914705
0.0596212824
0.0600993035
0.0605811431
0.0610668315
0.0615563991
0.0620498764
0.0625472944
0.0630486841
0.0635540768
0.0640635041
0.0645769979
0.0650945902
0.0656163132
0.0661421996
0.066672282
0.0672065935
0.0677451674
0.0682880373
0.0688352368
0.0693868001
0.0699427613
0.0705031552
0.0710680164
0.07163738
0.0722112814
0.0727897561
0.0733728401
0.0739605693
0.0745529803
0.0751501096
0.0757519943
0.0763586715
0.0769701786
0.0775865535
0.0782078342
0.078834059
0.0794652664
0.0801014955
0.0807427852
0.0813891752
0.0820407051
0.0826974149
0.083359345
0.0840265359
0.0846990287
0.0853768644
0.0860600847
0.0867487312
0.0874428461
0.0881424718
0.0888476509
0.0895584266
0.0902748421
0.090996941
0.0917247674
0.0924583653
0.0931977795
0.0939430547
0.0946942361
0.0954513694
0.0962145002
0.0969836748
0.0977589396
0.0985403415
0.0993279274
0.100121745
0.100921842
0.101728266
0.102541066
0.103360291
0.10418599
0.105018212
0.105857006
0.106702424
0.107554515
0.108413331
0.109278922
0.11015134
0.111030636
0.111916863
0.112810074
0.11371032
0.114617656
0.115532135
0.11645381
0.117382736
0.118318968
0.11926256
0.120213568
0.121172048
0.122138054
0.123111644
0.124092875
0.125081803
0.126078485
0.127082981
0.128095347
0.129115642
0.130143924
0.131180254
0.132224691
0.133277294
0.134338124
0.135407241
0.136484707
0.137570582
0.138664928
0.139767808
0.140879283
0.141999417
0.143128272
0.144265912
0.145412401
0.146567803
0.147732182
0.148905604
0.150088132
0.151279834
0.152480774
0.15369102
0.154910637
0.156139692
0.157378253
0.158626388
0.159884164
0.161151649
0.162428912
0.163716022
0.165013049
0.166320061
0.167637128
0.168964322
0.170301712
0.171649368
0.173007364
0.174375768
0.175754655
0.177144094
0.178544159
0.179954923
0.181376458
0.182808837
0.184252134
0.185706423
0.187171777
0.18864827
0.190135978
0.191634975
0.193145335
0.194667135
0.196200449
0.197745353
0.199301923
0.200870235
0.202450366
0.204042391
0.205646387
0.207262432
0.208890602
0.210530974
0.212183626
0.213848635
0.215526078
0.217216033
0.218918579
0.220633792
0.222361751
0.224102534
0.225856219
0.227622884
0.229402608
0.231195467
0.233001542
0.234820909
0.236653648
0.238499836
0.240359551
0.242232872
0.244119877
0.246020643
0.247935248
0.249863771
0.251806288
0.253762876
0.255733614
0.257718579
0.259717846
0.261731492
0.263759595
0.265802229
0.267859471
0.269931395
0.272018078
0.274119594
0.276236017
0.278367421
0.280513879
0.282675465
0.284852251
0.287044308
0.28925171
0.291474525
0.293712826
0.29596668
0.298236158
0.300521328
0.302822257
0.305139012
0.307471659
0.309820264
0.31218489
0.314565602
0.316962461
0.31937553
0.32180487
0.324250539
0.326712596
0.329191099
0.331686104
0.334197666
0.336725838
0.339270674
0.341832225
0.34441054
0.347005668
0.349617656
0.35224655
0.354892392
0.357555226
0.360235093
0.362932031
0.365646077
0.368377267
0.371125634
0.37389121
0.376674025
0.379474106
0.382291478
0.385126166
0.38797819
0.390847569
0.393734319
0.396638455
0.399559989
0.402498929
0.405455283
0.408429054
0.411420243
0.414428848
0.417454866
0.42049829
0.423559107
0.426637306
0.429732869
0.432845777
0.435976007
0.439123531
0.442288321
0.445470342
0.448669558
0.451885928
0.455119406
0.458369945
0.461637493
0.464921992
0.468223383
0.471541601
0.474876576
0.478228236
0.481596503
0.484981293
0.488382521
0.491800095
0.495233918
0.498683889
0.502149901
0.505631842
0.509129597
0.512643044
0.516172054
0.519716496
0.523276231
0.526851114
0.530440997
0.534045724
0.537665134
0.541299058
0.544947324
0.548609751
0.552286154
0.55597634
0.559680111
0.56339726
0.567127575
0.570870838
0.574626822
0.578395295
0.582176018
0.585968742
0.589773215
0.593589174
0.597416351
0.60125447
0.605103247
0.60896239
0.612831601
0.616710572
0.620598988
0.624496529
0.628402861
0.632317648
0.636240541
0.640171187
0.644109222
0.648054274
0.652005963
0.655963902
0.659927693
0.663896932
0.667871204
0.671850087
0.67583315
0.679819954
0.683810051
0.687802983
0.691798285
0.695795482
0.699794092
0.703793623
0.707793574
0.711793437
0.715792693
0.719790815
0.72378727
0.727781513
0.731772991
0.735761144
0.739745403
0.74372519
0.747699918
0.751668994
0.755631815
0.75958777
0.76353624
0.767476599
0.771408212
0.775330437
0.779242625
0.783144118
0.787034251
0.790912353
0.794777744
0.79862974
0.802467648
0.806290769
0.810098398
0.813889824
0.817664329
0.82142119
0.825159679
0.828879062
0.8325786
0.83625755
0.839915163
0.843550688
0.847163367
0.850752441
0.854317145
0.857856714
0.861370378
0.864857364
0.868316898
0.871748204
0.875150505
0.878523021
0.881864972
0.885175579
0.88845406
0.891699636
0.894911527
0.898088953
0.901231139
0.904337309
0.907406688
0.910438507
0.913431998
0.916386396
0.919300941
0.922174877
0.925007452
0.927797919
0.930545538
0.933249573
0.935909296
0.938523985
0.941092926
0.943615411
0.946090742
0.948518228
0.95089719
0.953226954
0.95550686
0.957736256
0.9599145
0.962040964
0.96411503
0.966136091
0.968103555
0.97001684
0.971875379
0.973678618
0.975426017
0.977117052
0.97875121
0.980327998
0.981846934
0.983307554
0.984709412
0.986052074
0.987335127
0.988558172
0.98972083
0.990822739
0.991863554
0.992842948
0.993760615
0.994616265
0.995409629
0.996140454
0.996808511
0.997413587
0.997955489
0.998434046
0.998849105
0.999200533
0.999488218
0.999712069
0.999872014
0.999968001
1
0.999968001
0.999872014
0.999712069
0.999488218
0.999200533
0.998849105
0.998434046
0.997955489
0.997413587
0.996808511
0.996140454
0.995409629
0.994616265
0.993760615
0.992842948
0.991863554
0.990822739
0.98972083
0.988558172
0.987335127
0.986052074
0.984709412
0.983307554
0.981846934
0.980327998
0.97875121
0.977117052
0.975426017
0.973678618
0.971875379
0.97001684
0.968103555
0.966136091
0.96411503
0.962040964
0.9599145
0.957736256
0.95550686
0.953226954
0.95089719
0.948518228
0.946090742
0.943615411
0.941092926
0.938523985
0.935909296
0.933249573
0.930545538
0.927797919
0.925007452
0.922174877
0.919300941
0.916386396
0.913431998
0.910438507
0.907406688
0.904337309
0.901231139
0.898088953
0.894911527
0.891699636
0.88845406
0.885175579
0.881864972
0.878523021
0.875150505
0.871748204
0.868316898
0.864857364
0.861370378
0.857856714
0.854317145
0.850752441
0.847163367
0.843550688
0.839915163
0.83625755
0.8325786
0.828879062
0.825159679
0.82142119
0.817664329
0.813889824
0.810098398
0.806290769
0.802467648
0.79862974
0.794777744
0.790912353
0.787034251
0.783144118
0.779242625
0.775330437
0.771408212
0.767476599
0.76353624
0.75958777
0.755631815
0.751668994
0.747699918
0.74372519
0.739745403
0.735761144
0.731772991
0.727781513
0.72378727
0.719790815
0.715792693
0.711793437
0.707793574
0.703793623
0.699794092
0.695795482
0.691798285
0.687802983
0.683810051
0.679819954
0.67583315
0.671850087
0.667871204
0.663896932
0.659927693
0.655963902
0.652005963
0.648054274
0.644109222
0.640171187
0.636240541
0.632317648
0.628402861
0.624496529
0.620598988
0.616710572
0.612831601
0.60896239
0.605103247
0.60125447
0.597416351
0.593589174
0.589773215
0.585968742
0.582176018
0.578395295
0.574626822
0.570870838
0.567127575
0.56339726
0.559680111
0.55597634
0.552286154
0.548609751
0.544947324
0.541299058
0.537665134
0.534045724
0.530440997
0.526851114
0.523276231
0.519716496
0.516172054
0.512643044
0.509129597
0.505631842
0.502149901
0.498683889
0.495233918
0.491800095
0.488382521
0.484981293
0.481596503
0.478228236
0.474876576
0.471541601
0.468223383
0.464921992
0.461637493
0.458369945
0.455119406
0.451885928
0.448669558
0.445470342
0.442288321
0.439123531
0.435976007
0.432845777
0.429732869
0.426637306
0.423559107
0.42049829
0.417454866
0.414428848
0.411420243
0.408429054
0.405455283
0.402498929
0.399559989
0.396638455
0.393734319
0.390847569
0.38797819
0.385126166
0.382291478
0.379474106
0.376674025
0.37389121
0.371125634
0.368377267
0.365646077
0.362932031
0.360235093
0.357555226
0.354892392
0.35224655
0.349617656
0.347005668
0.34441054
0.341832225
0.339270674
0.336725838
0.334197666
0.331686104
0.329191099
0.326712596
0.324250539
0.32180487
0.31937553
0.316962461
0.314565602
0.31218489
0.309820264
0.307471659
0.305139012
0.302822257
0.300521328
0.298236158
0.29596668
0.293712826
0.291474525
0.28925171
0.287044308
0.284852251
0.282675465
0.280513879
0.278367421
0.276236017
0.274119594
0.272018078
0.269931395
0.267859471
0.265802229
0.263759595
0.261731492
0.259717846
0.257718579
0.255733614
0.253762876
0.251806288
0.249863771
0.247935248
0.246020643
0.244119877
0.242232872
0.240359551
0.238499836
0.236653648
0.234820909
0.233001542
0.231195467
0.229402608
0.227622884
0.225856219
0.224102534
0.222361751
0.220633792
0.218918579
0.217216033
0.215526078
0.213848635
0.212183626
0.210530974
0.208890602
0.207262432
0.205646387
0.204042391
0.202450366
0.200870235
0.199301923
0.197745353
0.196200449
0.194667135
0.193145335
0.191634975
0.190135978
0.18864827
0.187171777
0.185706423
0.184252134
0.182808837
0.181376458
0.179954923
0.178544159
0.177144094
0.175754655
0.174375768
0.173007364
0.171649368
0.170301712
0.168964322
0.167637128
0.166320061
0.165013049
0.163716022
0.162428912
0.161151649
0.159884164
0.158626388
0.157378253
0.156139692
0.154910637
0.15369102
0.152480774
0.151279834
0.150088132
0.148905604
0.147732182
0.146567803
0.145412401
0.144265912
0.143128272
0.141999417
0.140879283
0.139767808
0.138664928
0.137570582
0.136484707
0.135407241
0.134338124
0.133277294
0.132224691
0.131180254
0.130143924
0.129115642
0.128095347
0.127082981
0.126078485
0.125081803
0.124092875
0.123111644
0.122138054
0.121172048
0.120213568
0.11926256
0.118318968
0.117382736
0.11645381
0.115532135
0.114617656
0.11371032
0.112810074
0.111916863
0.111030636
0.11015134
0.109278922
0.108413331
0.107554515
0.106702424
0.105857006
0.105018212
0.10418599
0.103360291
0.102541066
0.101728266
0.100921842
0.100121745
0.0993279274
0.0985403415
0.0977589396
0.0969836748
0.0962145002
0.0954513694
0.0946942361
0.0939430547
0.0931977795
0.0924583653
0.0917247674
0.090996941
0.0902748421
0.0895584266
0.0888476509
0.0881424718
0.0874428461
0.0867487312
0.0860600847
0.0853768644
0.0846990287
0.0840265359
0.083359345
0.0826974149
0.0820407051
0.0813891752
0.0807427852
0.0801014955
0.0794652664
0.078834059
0.0782078342
0.0775865535
0.0769701786
0.0763586715
0.0757519943
0.0751501096
0.0745529803
0.0739605693
0.0733728401
0.0727897561
0.0722112814
0.07163738
0.0710680164
0.0705031552
0.0699427613
0.0693868001
0.0688352368
0.0682880373
0.0677451674
0.0672065935
0.066672282
0.0661421996
0.0656163132
0.0650945902
0.0645769979
0.0640635041
0.0635540768
0.0630486841
0.0625472944
0.0620498764
0.0615563991
0.0610668315
0.0605811431
0.0600993035
0.0596212824
0.05914705
0.0586765766
0.0582098326
0.0577467888
0.0572874161
0.0568316859
0.0563795693
0.0559310381
0.0554860642
0.0550446195
0.0546066763
0.0541722072
0.0537411847
0.0533135818
0.0528893716
0.0524685274
0.0520510227
0.0516368312
0.0512259269
0.0508182839
0.0504138764
0.0500126791
0.0496146666
0.0492198138
0.0488280958
0.0484394879
0.0480539656
0.0476715046
0.0472920807
0.04691567
0.0465422487
0.0461717932
0.0458042801
0.0454396862
0.0450779884
0.0447191639
0.0443631901
0.0440100443
0.0436597042
0.0433121477
0.0429673529
0.0426252977
0.0422859608
0.0419493204
0.0416153554
0.0412840445
0.0409553668
0.0406293015
0.0403058279
0.0399849255
0.039666574
0.0393507531
0.0390374429
0.0387266236
0.0384182752
0.0381123785
0.0378089138
0.037507862
0.0372092039
0.0369129207
0.0366189935
0.0363274036
0.0360381325
0.0357511619
0.0354664736
0.0351840494
0.0349038714
0.0346259218
0.034350183
0.0340766374
0.0338052677
0.0335360565

shape_id 2
num_samples 1024
0.350829277
0.357068039
0.363306745
0.369545392
0.37578398
0.382022509
0.388260976
0.394499382
0.400737725
0.406976004
0.413214219
0.419452367
0.425690448
0.431928462
0.438166406
0.44440428
0.450642083
0.456879813
0.463117469
0.469355051
0.475592556
0.481829984
0.488067333
0.494304603
0.500541792
0.506778898
0.51301592
0.519252857
0.525489708
0.531726471
0.537963144
0.544199727
0.550436218
0.556672614
0.562908916
0.569145121
0.575381228
0.581617235
0.58785314
0.594088942
0.60032464
0.606560231
0.612795714
0.619031087
0.625266348
0.631501496
0.637736528
0.643971443
0.650206239
0.656440915
0.662675467
0.668909894
0.675144195
0.681378366
0.687612407
0.693846314
0.700080086
0.70631372
0.712547215
0.718780568
0.725013777
0.731246839
0.737479752
0.743712514
0.749945122
0.756177574
0.762409867
0.768641999
0.774873967
0.781105768
0.787337401
0.793568861
0.799800146
0.806031255
0.812262182
0.818492927
0.824723485
0.830953854
0.837184031
0.843414012
0.849643795
0.855873376
0.862102752
0.86833192
0.874560876
0.880789617
0.88701814
0.893246441
0.899474516
0.905702362
0.911929976
0.918157352
0.924384488
0.93061138
0.936838024
0.943064415
0.94929055
0.955516425
0.961742035
0.967967376
0.974192445
0.980417235
0.986641744
0.992865965
0.999089896
0.00531353114
0.0115368654
0.0177598943
0.0239826128
0.0302050159
0.0364270986
0.0426488557
0.0488702821
0.0550913723
0.061312121
0.0675325227
0.0737525718
0.0799722626
0.0861915894
0.0924105464
0.0986291276
0.104847327
0.111065138
0.117282555
0.123499572
0.129716182
0.135932378
0.142148154
0.148363503
0.154578418
0.160792892
0.167006919
0.173220491
0.1794336
0.18564624
0.191858403
0.19807008
0.204281265
0.210491949
0.216702125
0.222911784
0.229120918
0.235329518
0.241537576
0.247745084
0.253952031
0.260158411
0.266364212
0.272569427
0.278774045
0.284978057
0.291181454
0.297384225
0.303586361
0.309787851
0.315988685
0.322188852
0.328388342
0.334587144
0.340785247
0.34698264
0.353179311
0.359375248
0.365570441
0.371764877
0.377958544
0.384151429
0.390343521
0.396534806
0.402725272
0.408914905
0.415103692
0.42129162
0.427478675
0.433664843
0.43985011
0.446034461
0.452217882
0.458400357
0.464581873
0.470762413
0.476941962
0.483120503
0.489298022
0.495474502
0.501649925
0.507824276
0.513997536
0.52016969
0.526340719
0.532510604
0.538679329
0.544846874
0.55101322
0.55717835
0.563342242
0.569504878
0.575666237
0.581826299
0.587985043
0.59414245
0.600298496
0.606453161
0.612606422
0.618758258
0.624908646
0.631057562
0.637204983
0.643350886
0.649495247
0.65563804
0.661779241
0.667918825
0.674056767
0.680193039
0.686327616
0.692460471
0.698591576
0.704720904
0.710848427
0.716974115
0.723097941
0.729219874
0.735339885
0.741457944
0.747574018
0.753688078
0.759800091
0.765910024
0.772017846
0.778123522
0.78422702
0.790328304
0.79642734
0.802524091
0.808618524
0.8147106
0.820800282
0.826887534
0.832972316
0.839054591
0.845134318
0.851211457
0.857285969
0.863357811
0.869426942
0.875493319
0.8815569
0.88761764
0.893675495
0.899730419
0.905782368
0.911831294
0.91787715
0.923919889
0.92995946
0.935995817
0.942028907
0.94805868
0.954085085
0.960108069
0.966127578
0.97214356
0.978155958
0.984164718
0.990169782
0.996171094
0.0021685959
0.00816222769
0.0141519299
0.0201376418
0.0261193015
0.0320968467
0.0380702136
0.0440393379
0.0500041541
0.0559645958
0.0619205958
0.0678720857
0.0738189961
0.0797612568
0.0856987963
0.0916315423
0.0975594213
0.103482359
0.109400279
0.115313106
0.121220761
0.127123165
0.133020239
0.138911902
0.14479807
0.150678661
0.15655359
0.16242277
0.168286115
0.174143536
0.179994945
0.185840249
0.191679356
0.197512175
0.203338608
0.209158561
0.214971937
0.220778635
0.226578557
0.232371601
0.238157663
0.24393664
0.249708426
0.255472913
0.261229993
0.266979557
0.272721491
0.278455684
0.28418202
0.289900384
0.295610657
0.301312721
0.307006454
0.312691735
0.318368438
0.324036438
0.329695609
0.33534582
0.340986942
0.346618841
0.352241384
0.357854435
0.363457857
0.369051509
0.374635251
0.380208941
0.385772433
0.391325581
0.396868237
0.40240025
0.407921469
0.41343174
0.418930907
0.424418812
0.429895297
0.435360198
0.440813354
0.446254599
0.451683765
0.457100683
