# Pulseq sequence file
# Created by PyPulseq

[VERSION]
major 1
minor 4
revision 2

[DEFINITIONS]
AdcRasterTime 1e-07 
BlockDurationRaster 1e-05 
FOV 0.2 0.2 0.005 
GradientRasterTime 1e-05 
Nphase 64 
Nread 64 
RadiofrequencyRasterTime 1e-06 
TotalDuration 31.97312 

# Format of blocks:
# NUM DUR RF  GX  GY  GZ  ADC  EXT
[BLOCKS]
  1   0   0   0   0   0  0  1
  2 2947   0   0   0   0  0  0
  3 130   1   0   0   1  0  0
  4 100   0   2   3   4  0  0
  5  11   0   0   0   0  0  0
  6 650   0   5   0   0  1  0
  7 46120   0   6   7   8  0  2
  8 2947   0   0   0   0  0  0
  9 130   2   0   0   1  0  0
 10 100   0   2   9   4  0  0
 11  11   0   0   0   0  0  0
 12 650   0   5   0   0  2  0
 13 46120   0   6  10   8  0  2
 14 2947   0   0   0   0  0  0
 15 130   3   0   0   1  0  0
 16 100   0   2  11   4  0  0
 17  11   0   0   0   0  0  0
 18 650   0   5   0   0  3  0
 19 46120   0   6  12   8  0  2
 20 2947   0   0   0   0  0  0
 21 130   4   0   0   1  0  0
 22 100   0   2  13   4  0  0
 23  11   0   0   0   0  0  0
 24 650   0   5   0   0  4  0
 25 46120   0   6  14   8  0  2
 26 2947   0   0   0   0  0  0
 27 130   5   0   0   1  0  0
 28 100   0   2  15   4  0  0
 29  11   0   0   0   0  0  0
 30 650   0   5   0   0  5  0
 31 46120   0   6  16   8  0  2
 32 2947   0   0   0   0  0  0
 33 130   6   0   0   1  0  0
 34 100   0   2  17   4  0  0
 35  11   0   0   0   0  0  0
 36 650   0   5   0   0  6  0
 37 46120   0   6  18   8  0  2
 38 2947   0   0   0   0  0  0
 39 130   7   0   0   1  0  0
 40 100   0   2  19   4  0  0
 41  11   0   0   0   0  0  0
 42 650   0   5   0   0  7  0
 43 46120   0   6  20   8  0  2
 44 2947   0   0   0   0  0  0
 45 130   8   0   0   1  0  0
 46 100   0   2  21   4  0  0
 47  11   0   0   0   0  0  0
 48 650   0   5   0   0  8  0
 49 46120   0   6  22   8  0  2
 50 2947   0   0   0   0  0  0
 51 130   9   0   0   1  0  0
 52 100   0   2  23   4  0  0
 53  11   0   0   0   0  0  0
 54 650   0   5   0   0  9  0
 55 46120   0   6  24   8  0  2
 56 2947   0   0   0   0  0  0
 57 130  10   0   0   1  0  0
 58 100   0   2  25   4  0  0
 59  11   0   0   0   0  0  0
 60 650   0   5   0   0 10  0
 61 46120   0   6  26   8  0  2
 62 2947   0   0   0   0  0  0
 63 130   6   0   0   1  0  0
 64 100   0   2  27   4  0  0
 65  11   0   0   0   0  0  0
 66 650   0   5   0   0  6  0
 67 46120   0   6  28   8  0  2
 68 2947   0   0   0   0  0  0
 69 130  11   0   0   1  0  0
 70 100   0   2  29   4  0  0
 71  11   0   0   0   0  0  0
 72 650   0   5   0   0 11  0
 73 46120   0   6  30   8  0  2
 74 2947   0   0   0   0  0  0
 75 130  12   0   0   1  0  0
 76 100   0   2  31   4  0  0
 77  11   0   0   0   0  0  0
 78 650   0   5   0   0 12  0
 79 46120   0   6  32   8  0  2
 80 2947   0   0   0   0  0  0
 81 130  13   0   0   1  0  0
 82 100   0   2  33   4  0  0
 83  11   0   0   0   0  0  0
 84 650   0   5   0   0 13  0
 85 46120   0   6  34   8  0  2
 86 2947   0   0   0   0  0  0
 87 130  14   0   0   1  0  0
 88 100   0   2  35   4  0  0
 89  11   0   0   0   0  0  0
 90 650   0   5   0   0 14  0
 91 46120   0   6  36   8  0  2
 92 2947   0   0   0   0  0  0
 93 130   1   0   0   1  0  0
 94 100   0   2  37   4  0  0
 95  11   0   0   0   0  0  0
 96 650   0   5   0   0  1  0
 97 46120   0   6  38   8  0  2
 98 2947   0   0   0   0  0  0
 99 130  15   0   0   1  0  0
100 100   0   2  39   4  0  0
101  11   0   0   0   0  0  0
102 650   0   5   0   0 15  0
103 46120   0   6  40   8  0  2
104 2947   0   0   0   0  0  0
105 130  16   0   0   1  0  0
106 100   0   2  41   4  0  0
107  11   0   0   0   0  0  0
108 650   0   5   0   0 16  0
109 46120   0   6  42   8  0  2
110 2947   0   0   0   0  0  0
111 130  13   0   0   1  0  0
112 100   0   2  43   4  0  0
113  11   0   0   0   0  0  0
114 650   0   5   0   0 13  0
115 46120   0   6  44   8  0  2
116 2947   0   0   0   0  0  0
117 130  17   0   0   1  0  0
118 100   0   2  45   4  0  0
119  11   0   0   0   0  0  0
120 650   0   5   0   0 17  0
121 46120   0   6  46   8  0  2
122 2947   0   0   0   0  0  0
123 130   5   0   0   1  0  0
124 100   0   2  47   4  0  0
125  11   0   0   0   0  0  0
126 650   0   5   0   0  5  0
127 46120   0   6  48   8  0  2
128 2947   0   0   0   0  0  0
129 130  18   0   0   1  0  0
130 100   0   2  49   4  0  0
131  11   0   0   0   0  0  0
132 650   0   5   0   0 18  0
133 46120   0   6  50   8  0  2
134 2947   0   0   0   0  0  0
135 130  19   0   0   1  0  0
136 100   0   2  51   4  0  0
137  11   0   0   0   0  0  0
138 650   0   5   0   0 19  0
139 46120   0   6  52   8  0  2
140 2947   0   0   0   0  0  0
141 130   9   0   0   1  0  0
142 100   0   2  53   4  0  0
143  11   0   0   0   0  0  0
144 650   0   5   0   0  9  0
145 46120   0   6  54   8  0  2
146 2947   0   0   0   0  0  0
147 130  20   0   0   1  0  0
148 100   0   2  55   4  0  0
149  11   0   0   0   0  0  0
150 650   0   5   0   0 20  0
151 46120   0   6  56   8  0  2
152 2947   0   0   0   0  0  0
153 130  10   0   0   1  0  0
154 100   0   2  57   4  0  0
155  11   0   0   0   0  0  0
156 650   0   5   0   0 10  0
157 46120   0   6  58   8  0  2
158 2947   0   0   0   0  0  0
159 130  18   0   0   1  0  0
160 100   0   2  59   4  0  0
161  11   0   0   0   0  0  0
162 650   0   5   0   0 18  0
163 46120   0   6  60   8  0  2
164 2947   0   0   0   0  0  0
165 130  21   0   0   1  0  0
166 100   0   2  61   4  0  0
167  11   0   0   0   0  0  0
168 650   0   5   0   0 21  0
169 46120   0   6  62   8  0  2
170 2947   0   0   0   0  0  0
171 130   4   0   0   1  0  0
172 100   0   2  63   4  0  0
173  11   0   0   0   0  0  0
174 650   0   5   0   0  4  0
175 46120   0   6  64   8  0  2
176 2947   0   0   0   0  0  0
177 130  22   0   0   1  0  0
178 100   0   2  65   4  0  0
179  11   0   0   0   0  0  0
180 650   0   5   0   0 22  0
181 46120   0   6  66   8  0  2
182 2947   0   0   0   0  0  0
183 130  14   0   0   1  0  0
184 100   0   2  67   4  0  0
185  11   0   0   0   0  0  0
186 650   0   5   0   0 14  0
187 46120   0   6  68   8  0  2
188 2947   0   0   0   0  0  0
189 130  15   0   0   1  0  0
190 100   0   2  69   4  0  0
191  11   0   0   0   0  0  0
192 650   0   5   0   0 15  0
193 46120   0   6  70   8  0  2
194 2947   0   0   0   0  0  0
195 130  23   0   0   1  0  0
196 100   0   2  71   4  0  0
197  11   0   0   0   0  0  0
198 650   0   5   0   0 23  0
199 46120   0   6  71   8  0  2
200 2947   0   0   0   0  0  0
201 130   2   0   0   1  0  0
202 100   0   2  70   4  0  0
203  11   0   0   0   0  0  0
204 650   0   5   0   0  2  0
205 46120   0   6  69   8  0  2
206 2947   0   0   0   0  0  0
207 130  22   0   0   1  0  0
208 100   0   2  68   4  0  0
209  11   0   0   0   0  0  0
210 650   0   5   0   0 22  0
211 46120   0   6  67   8  0  2
212 2947   0   0   0   0  0  0
213 130  17   0   0   1  0  0
214 100   0   2  66   4  0  0
215  11   0   0   0   0  0  0
216 650   0   5   0   0 17  0
217 46120   0   6  65   8  0  2
218 2947   0   0   0   0  0  0
219 130  11   0   0   1  0  0
220 100   0   2  64   4  0  0
221  11   0   0   0   0  0  0
222 650   0   5   0   0 11  0
223 46120   0   6  63   8  0  2
224 2947   0   0   0   0  0  0
225 130  24   0   0   1  0  0
226 100   0   2  62   4  0  0
227  11   0   0   0   0  0  0
228 650   0   5   0   0 24  0
229 46120   0   6  61   8  0  2
230 2947   0   0   0   0  0  0
231 130   7   0   0   1  0  0
232 100   0   2  60   4  0  0
233  11   0   0   0   0  0  0
234 650   0   5   0   0  7  0
235 46120   0   6  59   8  0  2
236 2947   0   0   0   0  0  0
237 130  20   0   0   1  0  0
238 100   0   2  58   4  0  0
239  11   0   0   0   0  0  0
240 650   0   5   0   0 20  0
241 46120   0   6  57   8  0  2
242 2947   0   0   0   0  0  0
243 130  20   0   0   1  0  0
244 100   0   2  56   4  0  0
245  11   0   0   0   0  0  0
246 650   0   5   0   0 20  0
247 46120   0   6  55   8  0  2
248 2947   0   0   0   0  0  0
249 130   7   0   0   1  0  0
250 100   0   2  54   4  0  0
251  11   0   0   0   0  0  0
252 650   0   5   0   0  7  0
253 46120   0   6  53   8  0  2
254 2947   0   0   0   0  0  0
255 130  24   0   0   1  0  0
256 100   0   2  52   4  0  0
257  11   0   0   0   0  0  0
258 650   0   5   0   0 24  0
259 46120   0   6  51   8  0  2
260 2947   0   0   0   0  0  0
261 130  11   0   0   1  0  0
262 100   0   2  50   4  0  0
263  11   0   0   0   0  0  0
264 650   0   5   0   0 11  0
265 46120   0   6  49   8  0  2
266 2947   0   0   0   0  0  0
267 130  17   0   0   1  0  0
268 100   0   2  48   4  0  0
269  11   0   0   0   0  0  0
270 650   0   5   0   0 17  0
271 46120   0   6  47   8  0  2
272 2947   0   0   0   0  0  0
273 130  22   0   0   1  0  0
274 100   0   2  46   4  0  0
275  11   0   0   0   0  0  0
276 650   0   5   0   0 22  0
277 46120   0   6  45   8  0  2
278 2947   0   0   0   0  0  0
279 130   2   0   0   1  0  0
280 100   0   2  44   4  0  0
281  11   0   0   0   0  0  0
282 650   0   5   0   0  2  0
283 46120   0   6  43   8  0  2
284 2947   0   0   0   0  0  0
285 130  23   0   0   1  0  0
286 100   0   2  42   4  0  0
287  11   0   0   0   0  0  0
288 650   0   5   0   0 23  0
289 46120   0   6  41   8  0  2
290 2947   0   0   0   0  0  0
291 130  15   0   0   1  0  0
292 100   0   2  40   4  0  0
293  11   0   0   0   0  0  0
294 650   0   5   0   0 15  0
295 46120   0   6  39   8  0  2
296 2947   0   0   0   0  0  0
297 130  14   0   0   1  0  0
298 100   0   2  38   4  0  0
299  11   0   0   0   0  0  0
300 650   0   5   0   0 14  0
301 46120   0   6  37   8  0  2
302 2947   0   0   0   0  0  0
303 130  22   0   0   1  0  0
304 100   0   2  36   4  0  0
305  11   0   0   0   0  0  0
306 650   0   5   0   0 22  0
307 46120   0   6  35   8  0  2
308 2947   0   0   0   0  0  0
309 130   4   0   0   1  0  0
310 100   0   2  34   4  0  0
311  11   0   0   0   0  0  0
312 650   0   5   0   0  4  0
313 46120   0   6  33   8  0  2
314 2947   0   0   0   0  0  0
315 130  21   0   0   1  0  0
316 100   0   2  32   4  0  0
317  11   0   0   0   0  0  0
318 650   0   5   0   0 21  0
319 46120   0   6  31   8  0  2
320 2947   0   0   0   0  0  0
321 130  18   0   0   1  0  0
322 100   0   2  30   4  0  0
323  11   0   0   0   0  0  0
324 650   0   5   0   0 18  0
325 46120   0   6  29   8  0  2
326 2947   0   0   0   0  0  0
327 130  10   0   0   1  0  0
328 100   0   2  28   4  0  0
329  11   0   0   0   0  0  0
330 650   0   5   0   0 10  0
331 46120   0   6  27   8  0  2
332 2947   0   0   0   0  0  0
333 130  20   0   0   1  0  0
334 100   0   2  26   4  0  0
335  11   0   0   0   0  0  0
336 650   0   5   0   0 20  0
337 46120   0   6  25   8  0  2
338 2947   0   0   0   0  0  0
339 130   9   0   0   1  0  0
340 100   0   2  24   4  0  0
341  11   0   0   0   0  0  0
342 650   0   5   0   0  9  0
343 46120   0   6  23   8  0  2
344 2947   0   0   0   0  0  0
345 130  19   0   0   1  0  0
346 100   0   2  22   4  0  0
347  11   0   0   0   0  0  0
348 650   0   5   0   0 19  0
349 46120   0   6  21   8  0  2
350 2947   0   0   0   0  0  0
351 130  18   0   0   1  0  0
352 100   0   2  20   4  0  0
353  11   0   0   0   0  0  0
354 650   0   5   0   0 18  0
355 46120   0   6  19   8  0  2
356 2947   0   0   0   0  0  0
357 130   5   0   0   1  0  0
358 100   0   2  18   4  0  0
359  11   0   0   0   0  0  0
360 650   0   5   0   0  5  0
361 46120   0   6  17   8  0  2
362 2947   0   0   0   0  0  0
363 130  17   0   0   1  0  0
364 100   0   2  16   4  0  0
365  11   0   0   0   0  0  0
366 650   0   5   0   0 17  0
367 46120   0   6  15   8  0  2
368 2947   0   0   0   0  0  0
369 130  13   0   0   1  0  0
370 100   0   2  14   4  0  0
371  11   0   0   0   0  0  0
372 650   0   5   0   0 13  0
373 46120   0   6  13   8  0  2
374 2947   0   0   0   0  0  0
375 130  16   0   0   1  0  0
376 100   0   2  12   4  0  0
377  11   0   0   0   0  0  0
378 650   0   5   0   0 16  0
379 46120   0   6  11   8  0  2
380 2947   0   0   0   0  0  0
381 130  15   0   0   1  0  0
382 100   0   2  10   4  0  0
383  11   0   0   0   0  0  0
384 650   0   5   0   0 15  0
385 46120   0   6   9   8  0  4

# Format of RF events:
# id amplitude mag_id phase_id time_shape_id delay freq phase
# ..        Hz   ....     ....          ....    us   Hz   rad
[RF]
1      329.149 1 2 0 150 0 0
2      329.149 1 2 0 150 0 2.04204
3      329.149 1 2 0 150 0 6.12611
4      329.149 1 2 0 150 0 5.96903
5      329.149 1 2 0 150 0 1.5708
6      329.149 1 2 0 150 0 5.49779
7      329.149 1 2 0 150 0 5.18363
8      329.149 1 2 0 150 0 0.628319
9      329.149 1 2 0 150 0 4.39823
10      329.149 1 2 0 150 0 3.92699
11      329.149 1 2 0 150 0 2.82743
12      329.149 1 2 0 150 0 2.19911
13      329.149 1 2 0 150 0 3.61283
14      329.149 1 2 0 150 0 0.785398
15      329.149 1 2 0 150 0 1.25664
16      329.149 1 2 0 150 0 4.55531
17      329.149 1 2 0 150 0 4.71239
18      329.149 1 2 0 150 0 0.471239
19      329.149 1 2 0 150 0 1.41372
20      329.149 1 2 0 150 0 3.14159
21      329.149 1 2 0 150 0 5.34071
22      329.149 1 2 0 150 0 2.35619
23      329.149 1 2 0 150 0 3.76991
24      329.149 1 2 0 150 0 2.98451

# Format of trapezoid gradients:
# id amplitude rise flat fall delay
# ..      Hz/m   us   us   us    us
[TRAP]
 1       800000 150 1000 150   0
 2      -201562 200  600 200   0
 3       200000 200  600 200   0
 4      -575000 200  600 200   0
 5        50000  50 6400  50   0
 6  1.16364e+06 200  350 200   0
 7      -200000 200  600 200   0
 8  1.14286e+06 200  500 200   0
 9       193750 200  600 200   0
10      -193750 200  600 200   0
11       187500 200  600 200   0
12      -187500 200  600 200   0
13       181250 200  600 200   0
14      -181250 200  600 200   0
15       164706 150  700 150   0
16      -164706 150  700 150   0
17       158824 150  700 150   0
18      -158824 150  700 150   0
19       152941 150  700 150   0
20      -152941 150  700 150   0
21       147059 150  700 150   0
22      -147059 150  700 150   0
23       141176 150  700 150   0
24      -141176 150  700 150   0
25       135294 150  700 150   0
26      -135294 150  700 150   0
27       129412 150  700 150   0
28      -129412 150  700 150   0
29       123529 150  700 150   0
30      -123529 150  700 150   0
31       117647 150  700 150   0
32      -117647 150  700 150   0
33       111765 150  700 150   0
34      -111765 150  700 150   0
35       105882 150  700 150   0
36      -105882 150  700 150   0
37       100000 150  700 150   0
38      -100000 150  700 150   0
39      94117.6 150  700 150   0
40     -94117.6 150  700 150   0
41      88235.3 150  700 150   0
42     -88235.3 150  700 150   0
43      82352.9 150  700 150   0
44     -82352.9 150  700 150   0
45      76470.6 150  700 150   0
46     -76470.6 150  700 150   0
47      66666.7 100  800 100   0
48     -66666.7 100  800 100   0
49      61111.1 100  800 100   0
50     -61111.1 100  800 100   0
51      55555.6 100  800 100   0
52     -55555.6 100  800 100   0
53        50000 100  800 100   0
54       -50000 100  800 100   0
55      44444.4 100  800 100   0
56     -44444.4 100  800 100   0
57      38888.9 100  800 100   0
58     -38888.9 100  800 100   0
59      33333.3 100  800 100   0
60     -33333.3 100  800 100   0
61      27777.8 100  800 100   0
62     -27777.8 100  800 100   0
63      22222.2 100  800 100   0
64     -22222.2 100  800 100   0
65      15789.5  50  900  50   0
66     -15789.5  50  900  50   0
67      10526.3  50  900  50   0
68     -10526.3  50  900  50   0
69      5263.16  50  900  50   0
70     -5263.16  50  900  50   0
71            0  50  900  50   0

# Format of ADC events:
# id num dwell delay freq phase
# ..  ..    ns    us   Hz   rad
[ADC]
1 64 100000 50 0 0
2 64 100000 50 0 2.04204
3 64 100000 50 0 6.12611
4 64 100000 50 0 5.96903
5 64 100000 50 0 1.5708
6 64 100000 50 0 5.49779
7 64 100000 50 0 5.18363
8 64 100000 50 0 0.628319
9 64 100000 50 0 4.39823
10 64 100000 50 0 3.92699
11 64 100000 50 0 2.82743
12 64 100000 50 0 2.19911
13 64 100000 50 0 3.61283
14 64 100000 50 0 0.785398
15 64 100000 50 0 1.25664
16 64 100000 50 0 4.55531
17 64 100000 50 0 4.71239
18 64 100000 50 0 0.471239
19 64 100000 50 0 1.41372
20 64 100000 50 0 3.14159
21 64 100000 50 0 5.34071
22 64 100000 50 0 2.35619
23 64 100000 50 0 3.76991
24 64 100000 50 0 2.98451

# Format of extension lists:
# id type ref next_id
# next_id of 0 terminates the list
# Extension list is followed by extension specifications
[EXTENSIONS]
1 1 1 0
2 2 1 0
3 1 2 0
4 2 2 3

# Extension specification for setting labels:
# id set labelstring
extension LABELSET 1
1 1 REV
2 0 LIN

# Extension specification for setting labels:
# id set labelstring
extension LABELINC 2
1 1 LIN
2 1 SLC

# Sequence Shapes
[SHAPES]

shape_id 1
num_samples 1000
2.46987503e-09
6.68164436e-08
3.09920458e-07
8.51983185e-07
1.8139994e-06
3.31769462e-06
5.48546172e-06
8.44029687e-06
1.23057349e-05
1.72057839e-05
2.32648598e-05
3.06077193e-05
3.93593938e-05
4.96451212e-05
6.15902785e-05
7.53203133e-05
9.0960675e-05
0.000108636746
0.00012847377
0.000150596786
0.000175130554
0.000202199487
0.000231927578
0.000264438332
0.00029985469
0.000338298962
0.00037989275
0.000424756882
0.000473011336
0.000524775166
0.000580166435
0.000639302138
0.000702298131
0.000769269059
0.000840328283
0.000915587807
0.000995158206
0.00107914855
0.00116766635
0.00126081745
0.001358706
0.00146143433
0.00156910294
0.00168181038
0.00179965321
0.0019227259
0.00205112078
0.00218492798
0.00232423533
0.00246912832
0.00261969001
0.00277600097
0.00293813921
0.00310618011
0.00328019639
0.00346025796
0.00364643195
0.00383878258
0.00403737111
0.0042422558
0.00445349183
0.00467113121
0.00489522278
0.00512581209
0.00536294137
0.00560664948
0.00585697182
0.00611394028
0.00637758323
0.00664792539
0.00692498783
0.00720878789
0.00749933914
0.00779665132
0.0081007303
0.00841157802
0.00872919243
0.00905356747
0.00938469301
0.00972255481
0.0100671344
0.0104184093
0.0107763526
0.011140933
0.0115121153
0.0118898595
0.0122741214
0.0126648523
0.0130619991
0.0134655042
0.0138753055
0.014291336
0.0147135246
0.0151417953
0.0155760675
0.0160162559
0.0164622705
0.0169140168
0.0173713952
0.0178343015
0.018302627
0.0187762578
0.0192550753
0.0197389563
0.0202277726
0.0207213911
0.0212196741
0.0217224788
0.0222296577
0.0227410583
0.0232565234
0.0237758909
0.0242989938
0.0248256602
0.0253557136
0.0258889722
0.0264252499
0.0269643554
0.0275060927
0.0280502611
0.0285966549
0.0291450639
0.029695273
0.0302470623
0.0308002074
0.031354479
0.0319096433
0.0324654619
0.0330216916
0.0335780848
0.0341343894
0.0346903485
0.0352457012
0.0358001817
0.0363535202
0.0369054422
0.0374556692
0.0380039182
0.0385499021
0.0390933297
0.0396339054
0.0401713298
0.0407052993
0.0412355066
0.0417616401
0.0422833846
0.0428004212
0.0433124269
0.0438190754
0.0443200365
0.0448149767
0.0453035589
0.0457854425
0.0462602837
0.0467277354
0.0471874473
0.0476390659
0.0480822347
0.0485165944
0.0489417825
0.0493574338
0.0497631806
0.0501586521
0.0505434754
0.0509172749
0.0512796725
0.051630288
0.0519687388
0.0522946404
0.0526076061
0.0529072472
0.0531931734
0.0534649925
0.0537223105
0.0539647321
0.0541918604
0.0544032973
0.0545986431
0.0547774973
0.0549394583
0.0550841233
0.0552110888
0.0553199508
0.0554103043
0.0554817439
0.055533864
0.0555662583
0.0555785206
0.0555702446
0.0555410239
0.0554904523
0.0554181239
0.0553236331
0.0552065747
0.0550665443
0.0549031382
0.0547159532
0.0545045875
0.05426864
0.0540077109
0.0537214019
0.0534093157
0.0530710568
0.0527062314
0.0523144473
0.0518953143
0.0514484442
0.0509734507
0.0504699502
0.049937561
0.0493759042
0.0487846034
0.0481632849
0.0475115779
0.0468291145
0.0461155299
0.0453704626
0.0445935543
0.0437844502
0.042942799
0.0420682533
0.0411604692
0.0402191068
0.0392438304
0.0382343084
0.0371902132
0.036111222
0.0349970161
0.0338472818
0.0326617098
0.0314399958
0.0301818404
0.0288869494
0.0275550337
0.0261858094
0.024778998
0.0233343268
0.0218515285
0.0203303413
0.0187705097
0.0171717839
0.0155339201
0.0138566808
0.0121398346
0.0103831565
0.008586428
0.00674943716
0.00487197864
0.00295385387
0.00099487113
0.00100515437
0.00304640039
0.00512903756
0.00725322929
0.00941913171
0.0116268935
0.013876656
0.0161685529
0.0185027101
0.0208792461
0.0232982713
0.0257598884
0.028264192
0.0308112688
0.0334011973
0.036034048
0.0387098828
0.0414287556
0.0441907117
0.0469957882
0.0498440135
0.0527354075
0.0556699814
0.0586477378
0.0616686704
0.0647327645
0.067839996
0.0709903323
0.0741837318
0.0774201438
0.0806995087
0.0840217577
0.0873868129
0.0907945874
0.0942449851
0.0977379004
0.101273219
0.104850817
0.10847056
0.112132307
0.115835906
0.119581195
0.123368004
0.127196153
0.131065453
0.134975704
0.138926698
0.142918219
0.146950038
0.151021919
0.155133616
0.159284874
0.163475429
0.167705005
0.171973319
0.176280079
0.180624981
0.185007715
0.189427958
0.193885382
0.198379645
0.202910399
0.207477286
0.212079939
0.21671798
0.221391025
0.226098679
0.230840537
0.235616187
0.240425207
0.245267167
0.250141627
0.255048138
0.259986244
0.264955478
0.269955367
0.274985427
0.280045167
0.285134087
0.290251678
0.295397424
0.3005708
0.305771273
0.310998302
0.316251338
0.321529824
0.326833195
0.332160878
0.337512294
0.342886855
0.348283965
0.353703022
0.359143416
0.364604529
0.370085739
0.375586414
0.381105915
0.386643598
0.392198813
0.3977709
0.403359196
0.408963029
0.414581724
0.420214598
0.42586096
0.431520118
0.43719137
0.44287401
0.448567328
0.454270606
0.459983122
0.46570415
0.471432957
0.477168807
0.482910958
0.488658665
0.494411177
0.500167739
0.505927594
0.511689979
0.517454126
0.523219267
0.528984627
0.53474943
0.540512895
0.54627424
0.552032677
0.55778742
0.563537675
0.569282649
0.575021546
0.580753567
0.586477913
0.59219378
0.597900366
0.603596864
0.609282469
0.614956372
0.620617764
0.626265837
0.631899779
0.63751878
0.643122028
0.648708713
0.654278022
0.659829144
0.665361268
0.670873584
0.676365282
0.681835553
0.687283588
0.692708581
0.698109726
0.703486218
0.708837256
0.714162039
0.719459767
0.724729644
0.729970876
0.735182671
0.74036424
0.745514796
0.750633557
0.755719741
0.760772573
0.765791278
0.770775086
0.775723232
0.780634954
0.785509493
0.790346097
0.795144015
0.799902504
0.804620823
0.809298238
0.813934019
0.818527441
0.823077785
0.827584338
0.832046391
0.836463243
0.840834198
0.845158566
0.849435662
0.853664812
0.857845343
0.861976592
0.866057902
0.870088624
0.874068115
0.87799574
0.88187087
0.885692886
0.889461176
0.893175134
0.896834165
0.900437679
0.903985097
0.907475846
0.910909364
0.914285096
0.917602496
0.920861027
0.92406016
0.927199378
0.93027817
0.933296037
0.936252486
0.939147038
0.94197922
0.94474857
0.947454638
0.950096979
0.952675164
0.955188769
0.957637383
0.960020606
0.962338047
0.964589325
0.96677407
0.968891925
0.970942541
0.97292558
0.974840717
0.976687636
0.978466033
0.980175615
0.9818161
0.983387217
0.984888707
0.986320323
0.987681827
0.988972995
0.990193613
0.99134348
0.992422405
0.993430211
0.994366729
0.995231805
0.996025297
0.996747071
0.99739701
0.997975004
0.998480959
0.998914791
0.999276427
0.999565808
0.999782886
0.999927625
1
1
0.999927625
0.999782886
0.999565808
0.999276427
0.998914791
0.998480959
0.997975004
0.99739701
0.996747071
0.996025297
0.995231805
0.994366729
0.993430211
0.992422405
0.99134348
0.990193613
0.988972995
0.987681827
0.986320323
0.984888707
0.983387217
0.9818161
0.980175615
0.978466033
0.976687636
0.974840717
0.97292558
0.970942541
0.968891925
0.96677407
0.964589325
0.962338047
0.960020606
0.957637383
0.955188769
0.952675164
0.950096979
0.947454638
0.94474857
0.94197922
0.939147038
0.936252486
0.933296037
0.93027817
0.927199378
0.92406016
0.920861027
0.917602496
0.914285096
0.910909364
0.907475846
0.903985097
0.900437679
0.896834165
0.893175134
0.889461176
0.885692886
0.88187087
0.87799574
0.874068115
0.870088624
0.866057902
0.861976592
0.857845343
0.853664812
0.849435662
0.845158566
0.840834198
0.836463243
0.832046391
0.827584338
0.823077785
0.818527441
0.813934019
0.809298238
0.804620823
0.799902504
0.795144015
0.790346097
0.785509493
0.780634954
0.775723232
0.770775086
0.765791278
0.760772573
0.755719741
0.750633557
0.745514796
0.74036424
0.735182671
0.729970876
0.724729644
0.719459767
0.714162039
0.708837256
0.703486218
0.698109726
0.692708581
0.687283588
0.681835553
0.676365282
0.670873584
0.665361268
0.659829144
0.654278022
0.648708713
0.643122028
0.63751878
0.631899779
0.626265837
0.620617764
0.614956372
0.609282469
0.603596864
0.597900366
0.59219378
0.586477913
0.580753567
0.575021546
0.569282649
0.563537675
0.55778742
0.552032677
0.54627424
0.540512895
0.53474943
0.528984627
0.523219267
0.517454126
0.511689979
0.505927594
0.500167739
0.494411177
0.488658665
0.482910958
0.477168807
0.471432957
0.46570415
0.459983122
0.454270606
0.448567328
0.44287401
0.43719137
0.431520118
0.42586096
0.420214598
0.414581724
0.408963029
0.403359196
0.3977709
0.392198813
0.386643598
0.381105915
0.375586414
0.370085739
0.364604529
0.359143416
0.353703022
0.348283965
0.342886855
0.337512294
0.332160878
0.326833195
0.321529824
0.316251338
0.310998302
0.305771273
0.3005708
0.295397424
0.290251678
0.285134087
0.280045167
0.274985427
0.269955367
0.264955478
0.259986244
0.255048138
0.250141627
0.245267167
0.240425207
0.235616187
0.230840537
0.226098679
0.221391025
0.21671798
0.212079939
0.207477286
0.202910399
0.198379645
0.193885382
0.189427958
0.185007715
0.180624981
0.176280079
0.171973319
0.167705005
0.163475429
0.159284874
0.155133616
0.151021919
0.146950038
0.142918219
0.138926698
0.134975704
0.131065453
0.127196153
0.123368004
0.119581195
0.115835906
0.112132307
0.10847056
0.104850817
0.101273219
0.0977379004
0.0942449851
0.0907945874
0.0873868129
0.0840217577
0.0806995087
0.0774201438
0.0741837318
0.0709903323
0.067839996
0.0647327645
0.0616686704
0.0586477378
0.0556699814
0.0527354075
0.0498440135
0.0469957882
0.0441907117
0.0414287556
0.0387098828
0.036034048
0.0334011973
0.0308112688
0.028264192
0.0257598884
0.0232982713
0.0208792461
0.0185027101
0.0161685529
0.013876656
0.0116268935
0.00941913171
0.00725322929
0.00512903756
0.00304640039
0.00100515437
0.00099487113
0.00295385387
0.00487197864
0.00674943716
0.008586428
0.0103831565
0.0121398346
0.0138566808
0.0155339201
0.0171717839
0.0187705097
0.0203303413
0.0218515285
0.0233343268
0.024778998
0.0261858094
0.0275550337
0.0288869494
0.0301818404
0.0314399958
0.0326617098
0.0338472818
0.0349970161
0.036111222
0.0371902132
0.0382343084
0.0392438304
0.0402191068
0.0411604692
0.0420682533
0.042942799
0.0437844502
0.0445935543
0.0453704626
0.0461155299
0.0468291145
0.0475115779
0.0481632849
0.0487846034
0.0493759042
0.049937561
0.0504699502
0.0509734507
0.0514484442
0.0518953143
0.0523144473
0.0527062314
0.0530710568
0.0534093157
0.0537214019
0.0540077109
0.05426864
0.0545045875
0.0547159532
0.0549031382
0.0550665443
0.0552065747
0.0553236331
0.0554181239
0.0554904523
0.0555410239
0.0555702446
0.0555785206
0.0555662583
0.055533864
0.0554817439
0.0554103043
0.0553199508
0.0552110888
0.0550841233
0.0549394583
0.0547774973
0.0545986431
0.0544032973
0.0541918604
0.0539647321
0.0537223105
0.0534649925
0.0531931734
0.0529072472
0.0526076061
0.0522946404
0.0519687388
0.051630288
0.0512796725
0.0509172749
0.0505434754
0.0501586521
0.0497631806
0.0493574338
0.0489417825
0.0485165944
0.0480822347
0.0476390659
0.0471874473
0.0467277354
0.0462602837
0.0457854425
0.0453035589
0.0448149767
0.0443200365
0.0438190754
0.0433124269
0.0428004212
0.0422833846
0.0417616401
0.0412355066
0.0407052993
0.0401713298
0.0396339054
0.0390933297
0.0385499021
0.0380039182
0.0374556692
0.0369054422
0.0363535202
0.0358001817
0.0352457012
0.0346903485
0.0341343894
0.0335780848
0.0330216916
0.0324654619
0.0319096433
0.031354479
0.0308002074
0.0302470623
0.029695273
0.0291450639
0.0285966549
0.0280502611
0.0275060927
0.0269643554
0.0264252499
0.0258889722
0.0253557136
0.0248256602
0.0242989938
0.0237758909
0.0232565234
0.0227410583
0.0222296577
0.0217224788
0.0212196741
0.0207213911
0.0202277726
0.0197389563
0.0192550753
0.0187762578
0.018302627
0.0178343015
0.0173713952
0.0169140168
0.0164622705
0.0160162559
0.0155760675
0.0151417953
0.0147135246
0.014291336
0.0138753055
0.0134655042
0.0130619991
0.0126648523
0.0122741214
0.0118898595
0.0115121153
0.011140933
0.0107763526
0.0104184093
0.0100671344
0.00972255481
0.00938469301
0.00905356747
0.00872919243
0.00841157802
0.0081007303
0.00779665132
0.00749933914
0.00720878789
0.00692498783
0.00664792539
0.00637758323
0.00611394028
0.00585697182
0.00560664948
0.00536294137
0.00512581209
0.00489522278
0.00467113121
0.00445349183
0.0042422558
0.00403737111
0.00383878258
0.00364643195
0.00346025796
0.00328019639
0.00310618011
0.00293813921
0.00277600097
0.00261969001
0.00246912832
0.00232423533
0.00218492798
0.00205112078
0.0019227259
0.00179965321
0.00168181038
0.00156910294
0.00146143433
0.001358706
0.00126081745
0.00116766635
0.00107914855
0.000995158206
0.000915587807
0.000840328283
0.000769269059
0.000702298131
0.000639302138
0.000580166435
0.000524775166
0.000473011336
0.000424756882
0.00037989275
0.000338298962
0.00029985469
0.000264438332
0.000231927578
0.000202199487
0.000175130554
0.000150596786
0.00012847377
0.000108636746
9.0960675e-05
7.53203133e-05
6.15902785e-05
4.96451212e-05
3.93593938e-05
3.06077193e-05
2.32648598e-05
1.72057839e-05
1.23057349e-05
8.44029687e-06
5.48546172e-06
3.31769462e-06
1.8139994e-06
8.51983185e-07
3.09920458e-07
6.68164436e-08
2.46987503e-09

shape_id 2
num_samples 1000
0.5
0
0
247
-0.5
0
0
497
0.5
0
0
247


[SIGNATURE]
# This is the hash of the Pulseq file, calculated right before the [SIGNATURE] section was added
# It can be reproduced/verified with md5sum if the file trimmed to the position right above [SIGNATURE]
# The new line character preceding [SIGNATURE] BELONGS to the signature (and needs to be stripped away for recalculating/verification)
Type md5
Hash 6e662b5d63c2b6af3aaff53a904564b2
