# Pulseq sequence file
# Created by PyPulseq

[VERSION]
major 1
minor 4
revision 2

[DEFINITIONS]
AdcRasterTime 1e-07 
BlockDurationRaster 1e-05 
FOV 0.256 0.256 0.024 
GradientRasterTime 1e-05 
Name MEGE 
RES 256 256 12 
RadiofrequencyRasterTime 1e-06 
TotalDuration 12.7104 

# Format of blocks:
# NUM DUR RF  GX  GY  GZ  ADC  EXT
[BLOCKS]
   1 220   1   0   0   1  0  0
   2  80   0   2   3   4  0  3
   3 265   0   5   6   0  1  4
   4  50   0   7   8   0  0  0
   5 265   0   9  10   0  1  5
   6  50   0  11  12   0  0  0
   7 265   0  13  14   0  1  6
   8  50   0  15  16   0  0  0
   9 265   0  17  18   0  1  7
  10  50   0  19  20   0  0  0
  11 265   0  21  22   0  1  8
  12  50   0  23  24   0  0  0
  13 265   0  25  26   0  1  9
  14  50   0  27  28   0  0  0
  15 265   0  29  30   0  1 10
  16  50   0  31  32   0  0  0
  17 265   0  33  34   0  1 11
  18  50   0  35  36   0  0  0
  19 265   0  37  38   0  1 12
  20 225   0  39  40  41  0  0
  21 220   2   0   0   1  0  0
  22  80   0   2   3  42  0 14
  23 265   0   5   6   0  2  4
  24  50   0   7   8   0  0  0
  25 265   0   9  10   0  2  5
  26  50   0  11  12   0  0  0
  27 265   0  13  14   0  2  6
  28  50   0  15  16   0  0  0
  29 265   0  17  18   0  2  7
  30  50   0  19  20   0  0  0
  31 265   0  21  22   0  2  8
  32  50   0  23  24   0  0  0
  33 265   0  25  26   0  2  9
  34  50   0  27  28   0  0  0
  35 265   0  29  30   0  2 10
  36  50   0  31  32   0  0  0
  37 265   0  33  34   0  2 11
  38  50   0  35  36   0  0  0
  39 265   0  37  38   0  2 12
  40 225   0  39  40  43  0  0
  41 220   3   0   0   1  0  0
  42  80   0   2   3  44  0 15
  43 265   0   5   6   0  3  4
  44  50   0   7   8   0  0  0
  45 265   0   9  10   0  3  5
  46  50   0  11  12   0  0  0
  47 265   0  13  14   0  3  6
  48  50   0  15  16   0  0  0
  49 265   0  17  18   0  3  7
  50  50   0  19  20   0  0  0
  51 265   0  21  22   0  3  8
  52  50   0  23  24   0  0  0
  53 265   0  25  26   0  3  9
  54  50   0  27  28   0  0  0
  55 265   0  29  30   0  3 10
  56  50   0  31  32   0  0  0
  57 265   0  33  34   0  3 11
  58  50   0  35  36   0  0  0
  59 265   0  37  38   0  3 12
  60 225   0  39  40  45  0  0
  61 220   4   0   0   1  0  0
  62  80   0   2   3  46  0 16
  63 265   0   5   6   0  4  4
  64  50   0   7   8   0  0  0
  65 265   0   9  10   0  4  5
  66  50   0  11  12   0  0  0
  67 265   0  13  14   0  4  6
  68  50   0  15  16   0  0  0
  69 265   0  17  18   0  4  7
  70  50   0  19  20   0  0  0
  71 265   0  21  22   0  4  8
  72  50   0  23  24   0  0  0
  73 265   0  25  26   0  4  9
  74  50   0  27  28   0  0  0
  75 265   0  29  30   0  4 10
  76  50   0  31  32   0  0  0
  77 265   0  33  34   0  4 11
  78  50   0  35  36   0  0  0
  79 265   0  37  38   0  4 12
  80 225   0  39  40  47  0  0
  81 220   5   0   0   1  0  0
  82  80   0   2   3  48  0 17
  83 265   0   5   6   0  5  4
  84  50   0   7   8   0  0  0
  85 265   0   9  10   0  5  5
  86  50   0  11  12   0  0  0
  87 265   0  13  14   0  5  6
  88  50   0  15  16   0  0  0
  89 265   0  17  18   0  5  7
  90  50   0  19  20   0  0  0
  91 265   0  21  22   0  5  8
  92  50   0  23  24   0  0  0
  93 265   0  25  26   0  5  9
  94  50   0  27  28   0  0  0
  95 265   0  29  30   0  5 10
  96  50   0  31  32   0  0  0
  97 265   0  33  34   0  5 11
  98  50   0  35  36   0  0  0
  99 265   0  37  38   0  5 12
 100 225   0  39  40  49  0  0
 101 220   6   0   0   1  0  0
 102  80   0   2   3  50  0 18
 103 265   0   5   6   0  6  4
 104  50   0   7   8   0  0  0
 105 265   0   9  10   0  6  5
 106  50   0  11  12   0  0  0
 107 265   0  13  14   0  6  6
 108  50   0  15  16   0  0  0
 109 265   0  17  18   0  6  7
 110  50   0  19  20   0  0  0
 111 265   0  21  22   0  6  8
 112  50   0  23  24   0  0  0
 113 265   0  25  26   0  6  9
 114  50   0  27  28   0  0  0
 115 265   0  29  30   0  6 10
 116  50   0  31  32   0  0  0
 117 265   0  33  34   0  6 11
 118  50   0  35  36   0  0  0
 119 265   0  37  38   0  6 12
 120 225   0  39  40  51  0  0
 121 220   7   0   0   1  0  0
 122  80   0   2   3  52  0 19
 123 265   0   5   6   0  7  4
 124  50   0   7   8   0  0  0
 125 265   0   9  10   0  7  5
 126  50   0  11  12   0  0  0
 127 265   0  13  14   0  7  6
 128  50   0  15  16   0  0  0
 129 265   0  17  18   0  7  7
 130  50   0  19  20   0  0  0
 131 265   0  21  22   0  7  8
 132  50   0  23  24   0  0  0
 133 265   0  25  26   0  7  9
 134  50   0  27  28   0  0  0
 135 265   0  29  30   0  7 10
 136  50   0  31  32   0  0  0
 137 265   0  33  34   0  7 11
 138  50   0  35  36   0  0  0
 139 265   0  37  38   0  7 12
 140 225   0  39  40  53  0  0
 141 220   8   0   0   1  0  0
 142  80   0   2   3  54  0 20
 143 265   0   5   6   0  8  4
 144  50   0   7   8   0  0  0
 145 265   0   9  10   0  8  5
 146  50   0  11  12   0  0  0
 147 265   0  13  14   0  8  6
 148  50   0  15  16   0  0  0
 149 265   0  17  18   0  8  7
 150  50   0  19  20   0  0  0
 151 265   0  21  22   0  8  8
 152  50   0  23  24   0  0  0
 153 265   0  25  26   0  8  9
 154  50   0  27  28   0  0  0
 155 265   0  29  30   0  8 10
 156  50   0  31  32   0  0  0
 157 265   0  33  34   0  8 11
 158  50   0  35  36   0  0  0
 159 265   0  37  38   0  8 12
 160 225   0  39  40  55  0  0
 161 220   1   0   0   1  0  0
 162  80   0   2   3  56  0 21
 163 265   0   5   6   0  1  4
 164  50   0   7   8   0  0  0
 165 265   0   9  10   0  1  5
 166  50   0  11  12   0  0  0
 167 265   0  13  14   0  1  6
 168  50   0  15  16   0  0  0
 169 265   0  17  18   0  1  7
 170  50   0  19  20   0  0  0
 171 265   0  21  22   0  1  8
 172  50   0  23  24   0  0  0
 173 265   0  25  26   0  1  9
 174  50   0  27  28   0  0  0
 175 265   0  29  30   0  1 10
 176  50   0  31  32   0  0  0
 177 265   0  33  34   0  1 11
 178  50   0  35  36   0  0  0
 179 265   0  37  38   0  1 12
 180 225   0  39  40  57  0  0
 181 220   9   0   0   1  0  0
 182  80   0   2   3  58  0 22
 183 265   0   5   6   0  9  4
 184  50   0   7   8   0  0  0
 185 265   0   9  10   0  9  5
 186  50   0  11  12   0  0  0
 187 265   0  13  14   0  9  6
 188  50   0  15  16   0  0  0
 189 265   0  17  18   0  9  7
 190  50   0  19  20   0  0  0
 191 265   0  21  22   0  9  8
 192  50   0  23  24   0  0  0
 193 265   0  25  26   0  9  9
 194  50   0  27  28   0  0  0
 195 265   0  29  30   0  9 10
 196  50   0  31  32   0  0  0
 197 265   0  33  34   0  9 11
 198  50   0  35  36   0  0  0
 199 265   0  37  38   0  9 12
 200 225   0  39  40  59  0  0
 201 220  10   0   0   1  0  0
 202  80   0   2   3  60  0 23
 203 265   0   5   6   0 10  4
 204  50   0   7   8   0  0  0
 205 265   0   9  10   0 10  5
 206  50   0  11  12   0  0  0
 207 265   0  13  14   0 10  6
 208  50   0  15  16   0  0  0
 209 265   0  17  18   0 10  7
 210  50   0  19  20   0  0  0
 211 265   0  21  22   0 10  8
 212  50   0  23  24   0  0  0
 213 265   0  25  26   0 10  9
 214  50   0  27  28   0  0  0
 215 265   0  29  30   0 10 10
 216  50   0  31  32   0  0  0
 217 265   0  33  34   0 10 11
 218  50   0  35  36   0  0  0
 219 265   0  37  38   0 10 12
 220 225   0  39  40  61  0  0
 221 220  11   0   0   1  0  0
 222  80   0   2   3  62  0 24
 223 265   0   5   6   0 11  4
 224  50   0   7   8   0  0  0
 225 265   0   9  10   0 11  5
 226  50   0  11  12   0  0  0
 227 265   0  13  14   0 11  6
 228  50   0  15  16   0  0  0
 229 265   0  17  18   0 11  7
 230  50   0  19  20   0  0  0
 231 265   0  21  22   0 11  8
 232  50   0  23  24   0  0  0
 233 265   0  25  26   0 11  9
 234  50   0  27  28   0  0  0
 235 265   0  29  30   0 11 10
 236  50   0  31  32   0  0  0
 237 265   0  33  34   0 11 11
 238  50   0  35  36   0  0  0
 239 265   0  37  38   0 11 12
 240 225   0  39  40  63  0  0
 241 220   4   0   0   1  0  0
 242  80   0  64  65   4  0 27
 243 265   0  66  67   0  4  4
 244  50   0  68  69   0  0  0
 245 265   0  70  71   0  4  5
 246  50   0  72  73   0  0  0
 247 265   0  74  75   0  4  6
 248  50   0  76  77   0  0  0
 249 265   0  78  79   0  4  7
 250  50   0  80  81   0  0  0
 251 265   0  82  83   0  4  8
 252  50   0  84  85   0  0  0
 253 265   0  86  87   0  4  9
 254  50   0  88  89   0  0  0
 255 265   0  90  91   0  4 10
 256  50   0  92  93   0  0  0
 257 265   0  94  95   0  4 11
 258  50   0  96  97   0  0  0
 259 265   0  98  99   0  4 12
 260 225   0 100 101  41  0  0
 261 220  10   0   0   1  0  0
 262  80   0  64  65  42  0 30
 263 265   0  66  67   0 10  4
 264  50   0  68  69   0  0  0
 265 265   0  70  71   0 10  5
 266  50   0  72  73   0  0  0
 267 265   0  74  75   0 10  6
 268  50   0  76  77   0  0  0
 269 265   0  78  79   0 10  7
 270  50   0  80  81   0  0  0
 271 265   0  82  83   0 10  8
 272  50   0  84  85   0  0  0
 273 265   0  86  87   0 10  9
 274  50   0  88  89   0  0  0
 275 265   0  90  91   0 10 10
 276  50   0  92  93   0  0  0
 277 265   0  94  95   0 10 11
 278  50   0  96  97   0  0  0
 279 265   0  98  99   0 10 12
 280 225   0 100 101  43  0  0
 281 220  12   0   0   1  0  0
 282  80   0  64  65  44  0 32
 283 265   0  66  67   0 12  4
 284  50   0  68  69   0  0  0
 285 265   0  70  71   0 12  5
 286  50   0  72  73   0  0  0
 287 265   0  74  75   0 12  6
 288  50   0  76  77   0  0  0
 289 265   0  78  79   0 12  7
 290  50   0  80  81   0  0  0
 291 265   0  82  83   0 12  8
 292  50   0  84  85   0  0  0
 293 265   0  86  87   0 12  9
 294  50   0  88  89   0  0  0
 295 265   0  90  91   0 12 10
 296  50   0  92  93   0  0  0
 297 265   0  94  95   0 12 11
 298  50   0  96  97   0  0  0
 299 265   0  98  99   0 12 12
 300 225   0 100 101  45  0  0
 301 220  13   0   0   1  0  0
 302  80   0  64  65  46  0 34
 303 265   0  66  67   0 13  4
 304  50   0  68  69   0  0  0
 305 265   0  70  71   0 13  5
 306  50   0  72  73   0  0  0
 307 265   0  74  75   0 13  6
 308  50   0  76  77   0  0  0
 309 265   0  78  79   0 13  7
 310  50   0  80  81   0  0  0
 311 265   0  82  83   0 13  8
[RF]
1      69.4997 1 2 0 150 0 0
2      69.4997 1 2 0 150 0 0.872665
3      69.4997 1 2 0 150 0 2.61799
4      69.4997 1 2 0 150 0 5.23599
5      69.4997 1 2 0 150 0 2.44346
6      69.4997 1 2 0 150 0 0.523599
7      69.4997 1 2 0 150 0 5.75959
8      69.4997 1 2 0 150 0 5.58505
9      69.4997 1 2 0 150 0 1.5708
10      69.4997 1 2 0 150 0 4.01426
11      69.4997 1 2 0 150 0 1.0472
12      69.4997 1 2 0 150 0 3.66519
13      69.4997 1 2 0 150 0 4.18879
14      69.4997 1 2 0 150 0 4.71239
15      69.4997 1 2 0 150 0 2.0944
16      69.4997 1 2 0 150 0 3.14159

# Format of arbitrary gradients:
#   time_shape_id of 0 means default timing (stepping with grad_raster starting at 1/2 of grad_raster)
# id amplitude amp_shape_id time_shape_id delay
# ..      Hz/m       ..         ..          us
[GRADIENTS]
2 -1.07422e+06 3 4 0
3            0 5 4 0
5       390625 6 7 0
6            0 8 7 0
7       390625 9 10 0
8       766509 11 10 0
9      -381570 6 7 0
10     -83619.1 6 7 0
11      -381570 12 10 0
12      -730973 13 10 0
13       354825 6 7 0
14       163362 6 7 0
15       395955 14 10 0
16       661548 15 10 0
17      -311630 6 7 0
18      -235530 6 7 0
19      -528390 16 10 0
20      -561452 17 10 0
21       253987 6 7 0
22       296780 6 7 0
23       636329 18 10 0
24       435328 19 10 0
25      -184570 6 7 0
26      -344270 6 7 0
27      -714767 20 10 0
28      -375800 21 10 0
29       106595 6 7 0
30       375800 6 7 0
31       760068 22 10 0
32       389907 23 10 0
33     -23678.6 6 7 0
34      -389907 6 7 0
35      -770131 24 10 0
36      -389907 25 10 0
37     -60335.7 6 7 0
38       385937 6 7 0
39 -1.16132e+06 26 27 0
40  1.16132e+06 28 27 0
64       389270 3 4 0
65 -1.00121e+06 3 4 0
66      -141553 6 7 0
67       364075 6 7 0
68      -684333 29 10 0
69       364075 30 10 0
70       216207 6 7 0
71      -325334 6 7 0
72       592450 31 10 0
73      -493385 32 10 0
74      -280838 6 7 0
75       271510 6 7 0
76      -473100 33 10 0
77       608771 34 10 0
78       332449 6 7 0
79      -205099 6 7 0
80       368647 35 10 0
81      -695933 36 10 0
82      -368647 6 7 0
83       129179 6 7 0
84      -387754 37 10 0
85       750831 38 10 0
86       387754 6 7 0
87     -47270.1 6 7 0
88       388885 39 10 0
89      -770920 40 10 0
90      -388885 6 7 0
91     -36830.3 6 7 0
92      -388885 41 10 0
93      -755268 42 10 0
94       371986 6 7 0
95       119223 6 7 0
96       371986 43 10 0
97       704601 44 10 0
98      -337842 6 7 0
99      -196089 6 7 0
100 -1.16132e+06 45 27 0
101 -1.16132e+06 46 27 0
102       792095 3 4 0
103       725624 3 4 0
104      -288035 6 7 0
105      -263863 6 7 0
106      -578973 47 10 0
107      -509132 48 10 0
108       224874 6 7 0
109       319405 6 7 0
110       674540 49 10 0
111       373392 50 10 0
112      -151288 6 7 0
113      -360139 6 7 0
114      -738834 51 10 0
115      -384176 52 10 0
116      70687.8 6 7 0
117       384176 6 7 0
118       768874 53 10 0
119       390402 54 10 0
120      13189.4 6 7 0
121      -390402 6 7 0
122       763269 55 10 0
123      -390402 56 10 0
124     -96455.2 6 7 0
125       378529 6 7 0
126      -722278 57 10 0
127       378529 58 10 0
128       175249 6 7 0
129      -349107 6 7 0
130       647801 59 10 0
131      -418066 60 10 0
132      -245918 6 7 0
133       303500 6 7 0
134      -543291 61 10 0
135       547047 62 10 0
136       305186 6 7 0
137      -243822 6 7 0
138  1.16132e+06 63 27 0
139 -1.16132e+06 64 27 0
140      -963341 3 4 0
141       475311 3 4 0
142       350306 6 7 0
143      -172840 6 7 0
144       379185 65 10 0
145      -724119 66 10 0
146      -379185 6 7 0
147      93845.5 6 7 0
148      -390484 67 10 0
149       764001 68 10 0
150       390484 6 7 0
151     -10499.9 6 7 0
152       390484 69 10 0
153      -768463 70 10 0
154      -383680 6 7 0
155     -73332.4 6 7 0
156      -383680 71 10 0
157      -737298 72 10 0
158       359088 6 7 0
159       153765 6 7 0
160       378029 73 10 0
161       671952 74 10 0
162      -317848 6 7 0
163      -227069 6 7 0
164      -513108 75 10 0
165      -575453 76 10 0
166       261873 6 7 0
167       289845 6 7 0
168       624398 77 10 0
169       452275 78 10 0
170      -193757 6 7 0
171      -339185 6 7 0
172      -706740 79 10 0
173      -372799 80 10 0
174       116658 6 7 0
175       372799 6 7 0
176  1.16132e+06 81 27 0
177  1.16132e+06 82 27 0
178     -93914.4 3 4 0
179 -1.07011e+06 3 4 0
180      34150.7 6 7 0
181       389129 6 7 0
182       770831 83 10 0
183       389129 84 10 0
184      49939.9 6 7 0
185      -387420 6 7 0
186       749607 85 10 0
187      -387420 86 10 0
188      -131715 6 7 0
189       367749 6 7 0
190      -693631 87 10 0
191       367749 88 10 0
192       207384 6 7 0
193      -331028 6 7 0
194       605498 89 10 0
195      -477282 90 10 0
196      -273438 6 7 0
197       278961 6 7 0
198      -489292 91 10 0
199       595834 92 10 0
200       326816 6 7 0
201      -213961 6 7 0
202       365042 93 10 0
203      -686763 94 10 0
204      -365042 6 7 0
205       139042 6 7 0
206      -386344 95 10 0
207       745852 96 10 0
208       386344 6 7 0
209     -57675.8 6 7 0
210       389734 97 10 0
211      -770363 98 10 0
212      -389734 6 7 0
213     -26363.8 6 7 0
214 -1.16132e+06 99 27 0
215 -1.16132e+06 100 27 0
216  1.03141e+06 3 4 0
217       300248 3 4 0
218      -375056 6 7 0
219      -109181 6 7 0
220      -375056 101 10 0
221      -712760 102 10 0
222       342991 6 7 0
223       186937 6 7 0
224       439701 103 10 0
225       633316 104 10 0
226      -295023 6 7 0
227      -256026 6 7 0
228      -565079 105 10 0
229      -524511 106 10 0
230       233378 6 7 0
231       313245 6 7 0
232       664259 107 10 0
233       391388 108 10 0
234      -160914 6 7 0
235      -355942 6 7 0
236      -732644 109 10 0
237      -382137 110 10 0
238      80988.8 6 7 0
239       382137 6 7 0
240       767062 111 10 0
241       390616 112 10 0
242      2690.71 6 7 0
243      -390616 6 7 0
244       765919 113 10 0
245      -390616 114 10 0
246     -86245.5 6 7 0
247       380985 6 7 0
248      -729267 115 10 0
249       380985 116 10 0
250       165802 6 7 0
251      -353691 6 7 0
252  1.16132e+06 117 27 0
253 -1.16132e+06 118 27 0
254      -653596 3 4 0
255       852501 3 4 0
256       237671 6 7 0
257      -310000 6 7 0
258       557800 119 10 0
259      -532245 120 10 0
260      -298522 6 7 0
261       251937 6 7 0
262      -430934 121 10 0
263       639313 122 10 0
264       345533 6 7 0
265      -182194 6 7 0
266       376525 123 10 0
267      -716741 124 10 0
268      -376525 6 7 0
269       104004 6 7 0
270      -390061 125 10 0
271       760941 126 10 0
272       390061 6 7 0
273     -20992.3 6 7 0
274       390061 127 10 0
275      -769862 128 10 0
276      -385512 6 7 0
277     -62992.6 6 7 0
278      -385512 129 10 0
279      -743091 130 10 0
280       363091 6 7 0
281       144057 6 7 0
282       363091 131 10 0
283       681870 132 10 0
284      -323837 6 7 0
285      -218443 6 7 0
286      -497454 133 10 0
287      -589037 134 10 0
288       269569 6 7 0
289       282702 6 7 0
290  1.16132e+06 135 27 0
291  1.16132e+06 136 27 0
292      -557711 3 4 0
293      -918098 3 4 0
294       202804 6 7 0
295       333854 6 7 0
296       698202 137 10 0
297       369528 138 10 0
298      -126637 6 7 0
299      -369528 6 7 0
300      -752020 139 10 0
301      -388071 140 10 0
302      44598.1 6 7 0
303       388071 6 7 0
304       770973 141 10 0
305       388622 142 10 0
306      39508.1 6 7 0
307      -388622 6 7 0
308       754183 143 10 0
309      -388622 144 10 0
310      -121783 6 7 0
311       371156 6 7 0
312      -702428 145 10 0
313       371156 146 10 0
314       198411 6 7 0
315      -336483 6 7 0
316       618108 147 10 0
317      -460834 148 10 0
318      -265841 6 7 0
319       286210 6 7 0
320      -505132 149 10 0
321       582467 150 10 0
322       320946 6 7 0
323      -222669 6 7 0
324       368737 151 10 0
325      -677096 152 10 0
326      -361172 6 7 0
327       148804 6 7 0
328 -1.16132e+06 153 27 0
329  1.16132e+06 154 27 0
330   1.0578e+06 3 4 0
331      -187110 3 4 0
332      -384654 6 7 0
333      68039.8 6 7 0
334      -390302 155 10 0
335       769249 156 10 0
336       390302 6 7 0
337      15878.3 6 7 0
338       390302 157 10 0
339       762501 158 10 0
340      -377856 6 7 0
341     -99060.3 6 7 0
342      -377856 159 10 0
343      -720403 160 10 0
344       347891 6 7 0
345       177650 6 7 0
346       422518 161 10 0
347       644906 162 10 0
348      -301799 6 7 0
349      -248003 6 7 0
350      -550776 163 10 0
351      -539510 164 10 0
352       241714 6 7 0
353       306859 6 7 0
354       653499 165 10 0
355       409102 166 10 0
356      -170423 6 7 0
357      -351488 6 7 0
358      -725925 167 10 0
359      -379822 168 10 0
360      91231.3 6 7 0
361       379822 6 7 0
362       764696 169 10 0
363       390547 170 10 0
364     -7809.95 6 7 0
365      -390547 6 7 0
366 -1.16132e+06 171 27 0
367 -1.16132e+06 172 27 0
368      -208927 3 4 0
369  1.05371e+06 3 4 0
370      75973.5 6 7 0
371      -383166 6 7 0
372       735728 173 10 0
373      -383166 174 10 0
374      -156235 6 7 0
375       358020 6 7 0
376      -669332 175 10 0
377       382649 176 10 0
378       229253 6 7 0
379      -316277 6 7 0
380       571905 177 10 0
381      -517059 178 10 0
382      -291642 6 7 0
383       259870 6 7 0
384      -447963 179 10 0
385       627498 180 10 0
386       340511 6 7 0
387      -191416 6 7 0
388       373593 181 10 0
389      -708846 182 10 0
390      -373593 6 7 0
391       114087 6 7 0
392      -389355 183 10 0
393       757331 184 10 0
394       389355 6 7 0
395     -31469.5 6 7 0
396       389355 185 10 0
397      -770704 186 10 0
398      -387066 6 7 0
399     -52607.4 6 7 0
400      -387066 187 10 0
401      -748347 188 10 0
402       366833 6 7 0
403       134245 6 7 0
404  1.16132e+06 189 27 0
405  1.16132e+06 190 27 0
406      -906378 3 4 0
407      -576563 3 4 0
408       329592 6 7 0
409       209659 6 7 0
410       481441 191 10 0
411       602196 192 10 0
412      -277071 6 7 0
413      -275353 6 7 0
414      -599190 193 10 0
415      -485177 194 10 0
416       211705 6 7 0
417       328282 6 7 0
418       689160 195 10 0
419       365991 196 10 0
420      -136524 6 7 0
421      -365991 6 7 0
422      -747180 197 10 0
423      -386732 198 10 0
424      55013.2 6 7 0
425       386732 6 7 0
426       770559 199 10 0
427       389543 200 10 0
428      29047.7 6 7 0
429      -389543 6 7 0
430       758214 201 10 0
431      -389543 202 10 0
432      -111762 6 7 0
433       374296 6 7 0
434      -710718 203 10 0
435       374296 204 10 0
436       189295 6 7 0
437      -341695 6 7 0
438       630272 205 10 0
439      -444053 206 10 0
440      -258052 6 7 0
441       293253 6 7 0
442 -1.16132e+06 207 27 0
443  1.16132e+06 208 27 0
444       865824 3 4 0
445      -635841 3 4 0
446      -314845 6 7 0
447       231215 6 7 0
448      -386804 209 10 0
449       666940 210 10 0
450       357042 6 7 0
451      -158458 6 7 0
452       382686 211 10 0
453      -734281 212 10 0
454      -382686 6 7 0
455      78354.7 6 7 0
456      -390588 213 10 0
457       767580 214 10 0
458       390588 6 7 0
459      5381.29 6 7 0
460       390588 215 10 0
461       765293 216 10 0
462      -380382 6 7 0
463     -88867.8 6 7 0
464      -380382 217 10 0
465      -727526 218 10 0
466       352541 6 7 0
467       168234 6 7 0
468       405031 219 10 0
469       656030 220 10 0
470      -308356 6 7 0
471      -239801 6 7 0
472      -536075 221 10 0
473      -554120 222 10 0
474       249875 6 7 0
475       300251 6 7 0
476       642266 223 10 0
477       426520 224 10 0
478      -179810 6 7 0
479      -346780 6 7 0
480 -1.16132e+06 225 27 0
481 -1.16132e+06 226 27 0
482       278872 3 4 0
483  1.03739e+06 3 4 0
484      -101408 6 7 0
485      -377232 6 7 0
486      -761777 227 10 0
487      -390196 228 10 0
488        18305 6 7 0
489       390196 6 7 0
490       769556 229 10 0
491       390196 230 10 0
492      65646.6 6 7 0
493      -385069 6 7 0
494       741658 231 10 0
495      -385069 232 10 0
496      -146555 6 7 0
497       362091 6 7 0
498      -679376 233 10 0
499       364519 234 10 0
500       220668 6 7 0
501      -322325 6 7 0
502       585596 235 10 0
503      -501500 236 10 0
504      -284552 6 7 0
505       267616 6 7 0
506      -464668 237 10 0
507       615231 238 10 0
508       335243 6 7 0
509      -200500 6 7 0
510       370392 239 10 0
511      -700438 240 10 0
512      -370392 6 7 0
513       124088 6 7 0
514      -388369 241 10 0
515       753173 242 10 0
516       388369 6 7 0
517     -41923.9 6 7 0
518  1.16132e+06 243 27 0
519 -1.16132e+06 244 27 0
520 -1.06794e+06 3 4 0
521      -116006 3 4 0
522       388341 6 7 0
523      42184.1 6 7 0
524       388341 245 10 0
525       753063 246 10 0
526      -370308 6 7 0
527      -124336 6 7 0
528      -370308 247 10 0
529      -700222 248 10 0
530       335108 6 7 0
531       200724 6 7 0
532       465080 249 10 0
533       614919 250 10 0
534      -284372 6 7 0
535      -267806 6 7 0
536      -585932 251 10 0
537      -501107 252 10 0
538       220452 6 7 0
539       322473 6 7 0
540       679620 253 10 0
541       364064 254 10 0
542      -146312 6 7 0
543      -362189 6 7 0
544      -741799 255 10 0
545      -385113 256 10 0
546      65388.6 6 7 0
547       385113 6 7 0
548       769588 257 10 0
549       390184 258 10 0
550      18566.4 6 7 0
551      -390184 6 7 0
552       761697 259 10 0
553      -390184 260 10 0
554      -101661 6 7 0
555       377164 6 7 0
556 -1.16132e+06 261 27 0
557  1.16132e+06 262 27 0
558       495115 3 4 0
559      -953314 3 4 0
560      -180042 6 7 0
561       346660 6 7 0
562      -641980 263 10 0
563       426951 264 10 0
564       250076 6 7 0
565      -300083 6 7 0
566       535704 265 10 0
567      -554479 266 10 0
568      -308516 6 7 0
569       239594 6 7 0
570      -404591 267 10 0
571       656301 268 10 0
572       352654 6 7 0
573      -167998 6 7 0
574       380441 269 10 0
575      -727697 270 10 0
576      -380441 6 7 0
577      88612.9 6 7 0
578      -390591 271 10 0
579       765355 272 10 0
580       390591 6 7 0
581      -5119.6 6 7 0
582       390591 273 10 0
583      -767531 274 10 0
584      -382633 6 7 0
585       -78611 6 7 0
586      -382633 275 10 0
587      -734123 276 10 0
588       356936 6 7 0
589       158697 6 7 0
590       387250 277 10 0
591       666680 278 10 0
592      -314690 6 7 0
593      -231426 6 7 0
594 -1.16132e+06 279 27 0
595 -1.16132e+06 280 27 0
596       709102 3 4 0
597       806920 3 4 0
598      -257855 6 7 0
599      -293426 6 7 0
600      -630569 281 10 0
601      -443630 282 10 0
602       189066 6 7 0
603       341822 6 7 0
604       710918 283 10 0
605       374370 284 10 0
606      -111511 6 7 0
607      -374370 6 7 0
608      -758308 285 10 0
609      -389563 286 10 0
610      28786.8 6 7 0
611       389563 6 7 0
612       770541 287 10 0
613       389563 288 10 0
614      55272.3 6 7 0
615      -386695 6 7 0
616       747052 289 10 0
617      -386695 290 10 0
618      -136769 6 7 0
619       365899 6 7 0
620      -688928 291 10 0
621       365899 292 10 0
622       211925 6 7 0
623      -328140 6 7 0
624       598865 293 10 0
625      -485578 294 10 0
626      -277255 6 7 0
627       275168 6 7 0
628      -481038 295 10 0
629       602518 296 10 0
630       329732 6 7 0
631      -209439 6 7 0
632  1.16132e+06 297 27 0
633 -1.16132e+06 298 27 0
634 -1.00904e+06 3 4 0
635       368499 3 4 0
636       366922 6 7 0
637      -133999 6 7 0
638       387102 299 10 0
639      -748471 300 10 0
640      -387102 6 7 0
641        52348 6 7 0
642      -389334 301 10 0
643       770718 302 10 0
644       389334 6 7 0
645      31730.3 6 7 0
646       389334 303 10 0
647       757234 304 10 0
648      -373517 6 7 0
649      -114338 6 7 0
650      -373517 305 10 0
651      -708643 306 10 0
652       340383 6 7 0
653       191644 6 7 0
654       448384 307 10 0
655       627198 308 10 0
656      -291468 6 7 0
657      -260066 6 7 0
658      -572251 309 10 0
659      -516676 310 10 0
660       229041 6 7 0
661       316430 6 7 0
662       669588 311 10 0
663       382200 312 10 0
664      -155995 6 7 0
665      -358125 6 7 0
666      -735882 313 10 0
667      -383216 314 10 0
668      75716.8 6 7 0
669       383216 6 7 0
670  1.16132e+06 315 27 0
671  1.16132e+06 316 27 0
672      22196.9 3 4 0
673 -1.07399e+06 3 4 0
674     -8071.61 6 7 0
675       390542 6 7 0
676      -764630 317 10 0
677       390542 318 10 0
678      91485.8 6 7 0
679      -379761 6 7 0
680       725751 319 10 0
681      -379761 320 10 0
682      -170659 6 7 0
683       351374 6 7 0
684      -653225 321 10 0
685       409540 322 10 0
686       241919 6 7 0
687      -306697 6 7 0
688       550414 323 10 0
689      -539879 324 10 0
690      -301965 6 7 0
691       247801 6 7 0
692      -422086 325 10 0
693       645189 326 10 0
694       348010 6 7 0
695      -177417 6 7 0
696       377922 327 10 0
697      -720587 328 10 0
698      -377922 6 7 0
699      98807.1 6 7 0
700      -390313 329 10 0
701       762578 330 10 0
702       390313 6 7 0
703     -15616.8 6 7 0
704       390313 331 10 0
705      -769214 332 10 0
706      -384608 6 7 0
707     -68297.5 6 7 0
708 -1.16132e+06 333 27 0
709 -1.16132e+06 334 27 0
710       992949 3 4 0
711       409875 3 4 0
712      -361072 6 7 0
713      -149045 6 7 0
714      -369190 335 10 0
715      -676849 336 10 0
716       320797 6 7 0
717       222883 6 7 0
718       505522 337 10 0
719       582128 338 10 0
720      -265649 6 7 0
721      -286388 6 7 0
722      -618417 339 10 0
723      -460420 340 10 0
724       198186 6 7 0
725       336616 6 7 0
726       702641 341 10 0
727       371238 342 10 0
728      -121534 6 7 0
729      -371238 6 7 0
730      -754290 343 10 0
731      -388648 344 10 0
732      39247.7 6 7 0
733       388648 6 7 0
734       770970 345 10 0
735       388648 346 10 0
736      44858.1 6 7 0
737      -388041 6 7 0
738       751906 347 10 0
739      -388041 348 10 0
740      -126884 6 7 0
741       369443 6 7 0
742      -697983 349 10 0
743       369443 350 10 0
744       203028 6 7 0
745      -333718 6 7 0
746  1.16132e+06 351 27 0
747 -1.16132e+06 352 27 0
748      -741837 3 4 0
749       776933 3 4 0
750       269759 6 7 0
751      -282521 6 7 0
752       497060 353 10 0
753      -589370 354 10 0
754      -323983 6 7 0
755       218226 6 7 0
756      -363188 355 10 0
757       682111 356 10 0
758       363188 6 7 0
759      -143814 6 7 0
760       385555 357 10 0
761      -743229 358 10 0
762      -385555 6 7 0
763      62734.3 6 7 0
764      -390046 359 10 0
765       769890 360 10 0
766       390046 6 7 0
767      21253.6 6 7 0
768       390046 361 10 0
769       760857 362 10 0
770      -376455 6 7 0
771      -104256 6 7 0
772      -376455 363 10 0
773      -716551 364 10 0
774       345411 6 7 0
775       182425 6 7 0
776       431363 365 10 0
777       639024 366 10 0
778      -298353 6 7 0
779      -252137 6 7 0
780      -558156 367 10 0
781      -531871 368 10 0
782       237464 6 7 0
783       310159 6 7 0
784  1.16132e+06 369 27 0
785  1.16132e+06 370 27 0
786      -455303 3 4 0
787      -972957 3 4 0
788       165565 6 7 0
789       353802 6 7 0
790       729434 371 10 0
791       381043 372 10 0
792     -85990.2 6 7 0
793      -381043 6 7 0
794      -765978 373 10 0
795      -390617 374 10 0
796         2429 6 7 0
797       390617 6 7 0
798       767010 375 10 0
799       390617 376 10 0
800      81244.8 6 7 0
801      -382083 6 7 0
802       732483 377 10 0
803      -382083 378 10 0
804      -161152 6 7 0
805       355834 6 7 0
806      -663997 379 10 0
807       391833 380 10 0
808       233588 6 7 0
809      -313089 6 7 0
810       564727 381 10 0
811      -524889 382 10 0
812      -295195 6 7 0
813       255828 6 7 0
814      -439276 383 10 0
815       633610 384 10 0
816       343116 6 7 0
817      -186707 6 7 0
