# Pulseq sequence format
# Created by JEMRIS 2.9.2

[VERSION]
major 1
minor 4
revision 0

[DEFINITIONS]
id 1
Name myseq_LowRes_PartLoop_New_Mod_AdiaInvPulse
Num_Blocks 10096
GradientRasterTime 1e-05
AdcRasterTime 1e-07
RadiofrequencyRasterTime 1e-06
BlockDurationRaster 1e-05
FOV 0.22 0.22 0.001

# Format of blocks:
# NUM DUR RF  GX  GY  GZ ADC EXT
[BLOCKS]
    1   512   1   0   0   0  0  0
    2   100   0   1   1   1  0  0
    3 25544   0   0   0   0  0  0
    4   200   2   0   0   0  0  0
    5   110   0   0   0   0  0  0
    6    50   0   2   3   0  0  0
    7   100   0   4   5   0  1  0
    8    50   0   6   7   0  0  0
    9   130   0   0   0   0  0  0
   10   100   0   8   9   0  1  0
   11    50   0  10  11   0  0  0
   12   130   0   0   0   0  0  0
   13   100   0  12  13   0  1  0
   14    50   0  14  15   0  0  0
   15   130   0   0   0   0  0  0
   16   100   0  16  17   0  1  0
   17    50   0  18  19   0  0  0
   18   130   0   0   0   0  0  0
   19   100   0  20  21   0  1  0
   20    50   0  22  23   0  0  0
   21   130   0   0   0   0  0  0
   22   100   0  24  25   0  1  0
   23    50   0  26  27   0  0  0
   24   130   0   0   0   0  0  0
   25   100   0  28  29   0  1  0
   26    50   0  30  31   0  0  0
   27   130   0   0   0   0  0  0
   28   100   0  32  33   0  1  0
   29    50   0  34  35   0  0  0
   30   130   0   0   0   0  0  0
   31   100   0  36  37   0  1  0
   32    50   0  38  39   0  0  0
   33   130   0   0   0   0  0  0
   34   100   0   1   1   1  0  0
   35   150   0   0   0   0  0  0
   36 46870   0   0   0   0  0  0
   37   200   2   0   0   0  0  0
   38   110   0   0   0   0  0  0
   39    50   0  40  41   0  0  0
   40   100   0  42  43   0  1  0
   41    50   0  44  45   0  0  0
   42   130   0   0   0   0  0  0
   43   100   0  46  47   0  1  0
   44    50   0  48  49   0  0  0
   45   130   0   0   0   0  0  0
   46   100   0  50  51   0  1  0
   47    50   0  52  53   0  0  0
   48   130   0   0   0   0  0  0
   49   100   0  54  55   0  1  0
   50    50   0  56  57   0  0  0
   51   130   0   0   0   0  0  0
   52   100   0  58  59   0  1  0
   53    50   0  60  61   0  0  0
   54   130   0   0   0   0  0  0
   55   100   0  62  63   0  1  0
   56    50   0  64  65   0  0  0
   57   130   0   0   0   0  0  0
   58   100   0  66  67   0  1  0
   59    50   0  68  69   0  0  0
   60   130   0   0   0   0  0  0
   61   100   0  70  71   0  1  0
   62    50   0  72  73   0  0  0
   63   130   0   0   0   0  0  0
   64   100   0  74  75   0  1  0
   65    50   0  76  77   0  0  0
   66   130   0   0   0   0  0  0
   67   100   0   1   1   1  0  0
   68   150   0   0   0   0  0  0
   69 46870   0   0   0   0  0  0
   70   200   2   0   0   0  0  0
   71   110   0   0   0   0  0  0
   72    50   0  78  79   0  0  0
   73   100   0  80  81   0  1  0
   74    50   0  82  83   0  0  0
   75   130   0   0   0   0  0  0
   76   100   0  84  85   0  1  0
   77    50   0  86  87   0  0  0
   78   130   0   0   0   0  0  0
   79   100   0  88  89   0  1  0
   80    50   0  90  91   0  0  0
   81   130   0   0   0   0  0  0
   82   100   0  92  93   0  1  0
   83    50   0  94  95   0  0  0
   84   130   0   0   0   0  0  0
   85   100   0  96  97   0  1  0
   86    50   0  98  99   0  0  0
   87   130   0   0   0   0  0  0
   88   100   0 100 101   0  1  0
   89    50   0 102 103   0  0  0
   90   130   0   0   0   0  0  0
   91   100   0 104 105   0  1  0
   92    50   0 106 107   0  0  0
   93   130   0   0   0   0  0  0
   94   100   0 108 109   0  1  0
   95    50   0 110 111   0  0  0
   96   130   0   0   0   0  0  0
   97   100   0 112 113   0  1  0
   98    50   0 114 115   0  0  0
   99   130   0   0   0   0  0  0
  100   100   0   1   1   1  0  0
  101   150   0   0   0   0  0  0
  102 46870   0   0   0   0  0  0
  103   200   2   0   0   0  0  0
  104   110   0   0   0   0  0  0
  105    50   0 116 117   0  0  0
  106   100   0 118 119   0  1  0
  107    50   0 120 121   0  0  0
  108   130   0   0   0   0  0  0
  109   100   0 122 123   0  1  0
  110    50   0 124 125   0  0  0
  111   130   0   0   0   0  0  0
  112   100   0 126 127   0  1  0
  113    50   0 128 129   0  0  0
  114   130   0   0   0   0  0  0
  115   100   0 130 131   0  1  0
  116    50   0 132 133   0  0  0
  117   130   0   0   0   0  0  0
  118   100   0 134 135   0  1  0
  119    50   0 136 137   0  0  0
  120   130   0   0   0   0  0  0
  121   100   0 138 139   0  1  0
  122    50   0 140 141   0  0  0
  123   130   0   0   0   0  0  0
  124   100   0 142 143   0  1  0
  125    50   0 144 145   0  0  0
  126   130   0   0   0   0  0  0
  127   100   0 146 147   0  1  0
  128    50   0 148 149   0  0  0
  129   130   0   0   0   0  0  0
  130   100   0 150 151   0  1  0
  131    50   0 152 153   0  0  0
  132   130   0   0   0   0  0  0
  133   100   0   1   1   1  0  0
  134   150   0   0   0   0  0  0
  135 46870   0   0   0   0  0  0
  136   200   2   0   0   0  0  0
  137   110   0   0   0   0  0  0
  138    50   0 154 155   0  0  0
  139   100   0 156 157   0  1  0
  140    50   0 158 159   0  0  0
  141   130   0   0   0   0  0  0
  142   100   0 160 161   0  1  0
  143    50   0 162 163   0  0  0
  144   130   0   0   0   0  0  0
  145   100   0 164 165   0  1  0
  146    50   0 166 167   0  0  0
  147   130   0   0   0   0  0  0
  148   100   0 168 169   0  1  0
  149    50   0 170 171   0  0  0
  150   130   0   0   0   0  0  0
  151   100   0 172 173   0  1  0
  152    50   0 174 175   0  0  0
  153   130   0   0   0   0  0  0
  154   100   0 176 177   0  1  0
  155    50   0 178 179   0  0  0
  156   130   0   0   0   0  0  0
  157   100   0 180 181   0  1  0
  158    50   0 182 183   0  0  0
  159   130   0   0   0   0  0  0
  160   100   0 184 185   0  1  0
  161    50   0 186 187   0  0  0
  162   130   0   0   0   0  0  0
  163   100   0 188 189   0  1  0
  164    50   0 190 191   0  0  0
  165   130   0   0   0   0  0  0
  166   100   0   1   1   1  0  0
  167   150   0   0   0   0  0  0
  168 46870   0   0   0   0  0  0
  169   200   2   0   0   0  0  0
  170   110   0   0   0   0  0  0
  171    50   0 192 193   0  0  0
  172   100   0 194 195   0  1  0
  173    50   0 196 197   0  0  0
  174   130   0   0   0   0  0  0
  175   100   0 198 199   0  1  0
  176    50   0 200 201   0  0  0
  177   130   0   0   0   0  0  0
  178   100   0 202 203   0  1  0
  179    50   0 204 205   0  0  0
  180   130   0   0   0   0  0  0
  181   100   0 206 207   0  1  0
  182    50   0 208 209   0  0  0
  183   130   0   0   0   0  0  0
  184   100   0 210 211   0  1  0
  185    50   0 212 213   0  0  0
  186   130   0   0   0   0  0  0
  187   100   0 214 215   0  1  0
  188    50   0 216 217   0  0  0
  189   130   0   0   0   0  0  0
  190   100   0 218 219   0  1  0
  191    50   0 220 221   0  0  0
  192   130   0   0   0   0  0  0
  193   100   0 222 223   0  1  0
  194    50   0 224 225   0  0  0
  195   130   0   0   0   0  0  0
  196   100   0 226 227   0  1  0
  197    50   0 228 229   0  0  0
  198   130   0   0   0   0  0  0
  199   100   0   1   1   1  0  0
  200   150   0   0   0   0  0  0
  201 46870   0   0   0   0  0  0
  202   200   2   0   0   0  0  0
  203   110   0   0   0   0  0  0
  204    50   0 230 231   0  0  0
  205   100   0 232 233   0  1  0
  206    50   0 234 235   0  0  0
  207   130   0   0   0   0  0  0
  208   100   0 236 237   0  1  0
  209    50   0 238 239   0  0  0
  210   130   0   0   0   0  0  0
  211   100   0 240 241   0  1  0
  212    50   0 242 243   0  0  0
  213   130   0   0   0   0  0  0
  214   100   0 244 245   0  1  0
  215    50   0 246 247   0  0  0
  216   130   0   0   0   0  0  0
  217   100   0 248 249   0  1  0
  218    50   0 250 251   0  0  0
  219   130   0   0   0   0  0  0
  220   100   0 252 253   0  1  0
  221    50   0 254 255   0  0  0
  222   130   0   0   0   0  0  0
  223   100   0 256 257   0  1  0
  224    50   0 258 259   0  0  0
  225   130   0   0   0   0  0  0
  226   100   0 260 261   0  1  0
  227    50   0 262 263   0  0  0
  228   130   0   0   0   0  0  0
  229   100   0 264 265   0  1  0
  230    50   0 266 267   0  0  0
  231   130   0   0   0   0  0  0
  232   100   0   1   1   1  0  0
  233   150   0   0   0   0  0  0
  234 46870   0   0   0   0  0  0
  235   200   2   0   0   0  0  0
  236   110   0   0   0   0  0  0
  237    50   0 268 269   0  0  0
  238   100   0 270 271   0  1  0
  239    50   0 272 273   0  0  0
  240   130   0   0   0   0  0  0
  241   100   0 274 275   0  1  0
  242    50   0 276 277   0  0  0
  243   130   0   0   0   0  0  0
  244   100   0 278 279   0  1  0
  245    50   0 280 281   0  0  0
  246   130   0   0   0   0  0  0
  247   100   0 282 283   0  1  0
  248    50   0 284 285   0  0  0
  249   130   0   0   0   0  0  0
  250   100   0 286 287   0  1  0
  251    50   0 288 289   0  0  0
  252   130   0   0   0   0  0  0
  253   100   0 290 291   0  1  0
  254    50   0 292 293   0  0  0
  255   130   0   0   0   0  0  0
  256   100   0 294 295   0  1  0
  257    50   0 296 297   0  0  0
  258   130   0   0   0   0  0  0
  259   100   0 298 299   0  1  0
  260    50   0 300 301   0  0  0
  261   130   0   0   0   0  0  0
  262   100   0 302 303   0  1  0
  263    50   0 304 305   0  0  0
  264   130   0   0   0   0  0  0
  265   100   0   1   1   1  0  0
  266   150   0   0   0   0  0  0
  267 46870   0   0   0   0  0  0
  268   200   2   0   0   0  0  0
  269   110   0   0   0   0  0  0
  270    50   0 306 307   0  0  0
  271   100   0 308 309   0  1  0
  272    50   0 310 311   0  0  0
  273   130   0   0   0   0  0  0
  274   100   0 312 313   0  1  0
  275    50   0 314 315   0  0  0
  276   130   0   0   0   0  0  0
  277   100   0 316 317   0  1  0
  278    50   0 318 319   0  0  0
  279   130   0   0   0   0  0  0
  280   100   0 320 321   0  1  0
  281    50   0 322 323   0  0  0
  282   130   0   0   0   0  0  0
  283   100   0 324 325   0  1  0
[RF]
1      205.907 1 2 0   0 0 0
2      6.94444 4 5 0   0 0 0

# Format of arbitrary gradients:
# id amplitude shape_id time_shape_id delay
# ..      Hz/m     ....          ....    us
[GRADIENTS]
1  2.54648e+07 3 0   0
2      -290909 6 0   0
3 3.54132e-303 7 0   0
4       290909 3 0   0
5 3.54132e-303 8 0   0
6     -18.7523 6 0   0
7      3303.04 6 0   0
8      -290890 3 0   0
9     -3303.04 3 0   0
10      56.2545 6 0   0
11     -3302.62 6 0   0
12       290834 3 0   0
13      6605.66 3 0   0
14     -93.7495 6 0   0
15      3301.76 6 0   0
16      -290740 3 0   0
17     -9907.42 3 0   0
18      131.232 6 0   0
19     -3300.49 6 0   0
20       290609 3 0   0
21      13207.9 3 0   0
22     -168.698 6 0   0
23      3298.78 6 0   0
24      -290440 3 0   0
25     -16506.7 3 0   0
26      206.143 6 0   0
27     -3296.66 6 0   0
28       290234 3 0   0
29      19803.4 3 0   0
30      -243.56 6 0   0
31       3294.1 6 0   0
32      -289991 3 0   0
33     -23097.5 3 0   0
34      280.946 6 0   0
35     -3291.13 6 0   0
36       289710 3 0   0
37      26388.6 3 0   0
38     -318.296 6 0   0
39      3287.72 6 0   0
40       289391 6 0   0
41      29676.3 6 0   0
42      -289391 3 0   0
43     -29676.3 3 0   0
44      355.605 6 0   0
45      -3283.9 6 0   0
46       289036 3 0   0
47      32960.2 3 0   0
48     -392.868 6 0   0
49      3279.65 6 0   0
50      -288643 3 0   0
51     -36239.8 3 0   0
52      430.081 6 0   0
53     -3274.98 6 0   0
54       288213 3 0   0
55      39514.8 3 0   0
56     -467.238 6 0   0
57      3269.88 6 0   0
58      -287746 3 0   0
59     -42784.7 3 0   0
60      504.335 6 0   0
61     -3264.37 6 0   0
62       287241 3 0   0
63      46049.1 3 0   0
64     -541.367 6 0   0
65      3258.43 6 0   0
66      -286700 3 0   0
67     -49307.5 3 0   0
68      578.329 6 0   0
69     -3252.07 6 0   0
70       286122 3 0   0
71      52559.6 3 0   0
72     -615.216 6 0   0
73       3245.3 6 0   0
74      -285506 3 0   0
75     -55804.9 3 0   0
76      652.024 6 0   0
77      -3238.1 6 0   0
78      -284854 6 0   0
79       -59043 6 0   0
80       284854 3 0   0
81        59043 3 0   0
82     -688.748 6 0   0
83      3230.49 6 0   0
84      -284166 3 0   0
85     -62273.5 3 0   0
86      725.383 6 0   0
87     -3222.46 6 0   0
88       283440 3 0   0
89      65495.9 3 0   0
90     -761.925 6 0   0
91      3214.02 6 0   0
92      -282678 3 0   0
93     -68709.9 3 0   0
94      798.369 6 0   0
95     -3205.16 6 0   0
96       281880 3 0   0
97      71915.1 3 0   0
98     -834.709 6 0   0
99      3195.89 6 0   0
100      -281045 3 0   0
101       -75111 3 0   0
102      870.942 6 0   0
103      -3186.2 6 0   0
104       280174 3 0   0
105      78297.2 3 0   0
106     -907.063 6 0   0
107      3176.11 6 0   0
108      -279267 3 0   0
109     -81473.3 3 0   0
110      943.067 6 0   0
111     -3165.61 6 0   0
112       278324 3 0   0
113      84638.9 3 0   0
114     -978.949 6 0   0
115      3154.69 6 0   0
116       277345 6 0   0
117      87793.6 6 0   0
118      -277345 3 0   0
119     -87793.6 3 0   0
120       1014.7 6 0   0
121     -3143.38 6 0   0
122       276331 3 0   0
123        90937 3 0   0
124     -1050.33 6 0   0
125      3131.65 6 0   0
126      -275280 3 0   0
127     -94068.6 3 0   0
128      1085.82 6 0   0
129     -3119.52 6 0   0
130       274194 3 0   0
131      97188.2 3 0   0
132     -1121.17 6 0   0
133      3106.99 6 0   0
134      -273073 3 0   0
135      -100295 3 0   0
136      1156.37 6 0   0
137     -3094.06 6 0   0
138       271917 3 0   0
139       103389 3 0   0
140     -1191.43 6 0   0
141      3080.74 6 0   0
142      -270725 3 0   0
143      -106470 3 0   0
144      1226.33 6 0   0
145     -3067.01 6 0   0
146       269499 3 0   0
147       109537 3 0   0
148     -1261.08 6 0   0
149      3052.89 6 0   0
150      -268238 3 0   0
151      -112590 3 0   0
152      1295.66 6 0   0
153     -3038.37 6 0   0
154      -266942 6 0   0
155      -115628 6 0   0
156       266942 3 0   0
157       115628 3 0   0
158     -1330.07 6 0   0
159      3023.46 6 0   0
160      -265612 3 0   0
161      -118652 3 0   0
162      1364.32 6 0   0
163     -3008.17 6 0   0
164       264248 3 0   0
165       121660 3 0   0
166     -1398.38 6 0   0
167      2992.48 6 0   0
168      -262850 3 0   0
169      -124652 3 0   0
170      1432.27 6 0   0
171     -2976.41 6 0   0
172       261417 3 0   0
173       127629 3 0   0
174     -1465.97 6 0   0
175      2959.96 6 0   0
176      -259951 3 0   0
177      -130589 3 0   0
178      1499.49 6 0   0
179     -2943.12 6 0   0
180       258452 3 0   0
181       133532 3 0   0
182     -1532.81 6 0   0
183      2925.91 6 0   0
184      -256919 3 0   0
185      -136458 3 0   0
186      1565.93 6 0   0
187     -2908.32 6 0   0
188       255353 3 0   0
189       139366 3 0   0
190     -1598.85 6 0   0
191      2890.35 6 0   0
192       253754 6 0   0
193       142256 6 0   0
194      -253754 3 0   0
195      -142256 3 0   0
196      1631.57 6 0   0
197     -2872.01 6 0   0
198       252123 3 0   0
199       145128 3 0   0
200     -1664.07 6 0   0
201       2853.3 6 0   0
202      -250459 3 0   0
203      -147982 3 0   0
204      1696.36 6 0   0
205     -2834.22 6 0   0
206       248762 3 0   0
207       150816 3 0   0
208     -1728.43 6 0   0
209      2814.78 6 0   0
210      -247034 3 0   0
211      -153631 3 0   0
212      1760.28 6 0   0
213     -2794.97 6 0   0
214       245274 3 0   0
215       156426 3 0   0
216      -1791.9 6 0   0
217       2774.8 6 0   0
218      -243482 3 0   0
219      -159200 3 0   0
220      1823.29 6 0   0
221     -2754.28 6 0   0
222       241658 3 0   0
223       161955 3 0   0
224     -1854.45 6 0   0
225       2733.4 6 0   0
226      -239804 3 0   0
227      -164688 3 0   0
228      1885.36 6 0   0
229     -2712.17 6 0   0
230      -237919 6 0   0
231      -167400 6 0   0
232       237919 3 0   0
233       167400 3 0   0
234     -1916.03 6 0   0
235      2690.59 6 0   0
236      -236003 3 0   0
237      -170091 3 0   0
238      1946.46 6 0   0
239     -2668.66 6 0   0
240       234056 3 0   0
241       172760 3 0   0
242     -1976.64 6 0   0
243      2646.38 6 0   0
244      -232079 3 0   0
245      -175406 3 0   0
246      2006.56 6 0   0
247     -2623.77 6 0   0
248       230073 3 0   0
249       178030 3 0   0
250     -2036.22 6 0   0
251      2600.82 6 0   0
252      -228037 3 0   0
253      -180631 3 0   0
254      2065.62 6 0   0
255     -2577.53 6 0   0
256       225971 3 0   0
257       183208 3 0   0
258     -2094.75 6 0   0
259      2553.91 6 0   0
260      -223876 3 0   0
261      -185762 3 0   0
262      2123.61 6 0   0
263     -2529.96 6 0   0
264       221753 3 0   0
265       188292 3 0   0
266      -2152.2 6 0   0
267      2505.69 6 0   0
268       219600 6 0   0
269       190798 6 0   0
270      -219600 3 0   0
271      -190798 3 0   0
272      2180.51 6 0   0
273     -2481.09 6 0   0
274       217420 3 0   0
275       193279 3 0   0
276     -2208.54 6 0   0
277      2456.17 6 0   0
278      -215211 3 0   0
279      -195735 3 0   0
280      2236.29 6 0   0
281     -2430.94 6 0   0
282       212975 3 0   0
283       198166 3 0   0
284     -2263.74 6 0   0
285      2405.39 6 0   0
286      -210711 3 0   0
287      -200571 3 0   0
288      2290.91 6 0   0
289     -2379.53 6 0   0
290       208420 3 0   0
291       202951 3 0   0
292     -2317.78 6 0   0
293      2353.37 6 0   0
294      -206103 3 0   0
295      -205304 3 0   0
296      2344.35 6 0   0
297      -2326.9 6 0   0
298       203758 3 0   0
299       207631 3 0   0
300     -2370.62 6 0   0
301      2300.13 6 0   0
302      -201388 3 0   0
303      -209931 3 0   0
304      2396.58 6 0   0
305     -2273.07 6 0   0
306      -198991 6 0   0
307      -212204 6 0   0
308       198991 3 0   0
309       212204 3 0   0
310     -2422.24 6 0   0
311      2245.71 6 0   0
312      -196569 3 0   0
313      -214450 3 0   0
314      2447.58 6 0   0
315     -2218.06 6 0   0
316       194121 3 0   0
317       216668 3 0   0
318     -2472.61 6 0   0
319      2190.13 6 0   0
320      -191649 3 0   0
321      -218858 3 0   0
322      2497.31 6 0   0
323     -2161.91 6 0   0
324       189151 3 0   0
325       221020 3 0   0
326      -2521.7 6 0   0
327      2133.42 6 0   0
328      -186630 3 0   0
329      -223153 3 0   0
330      2545.76 6 0   0
331     -2104.65 6 0   0
332       184084 3 0   0
333       225258 3 0   0
334     -2569.49 6 0   0
335      2075.61 6 0   0
336      -181514 3 0   0
337      -227334 3 0   0
338      2592.89 6 0   0
339      -2046.3 6 0   0
340       178922 3 0   0
341       229380 3 0   0
342     -2615.96 6 0   0
343      2016.73 6 0   0
344       176306 6 0   0
345       231397 6 0   0
346      -176306 3 0   0
347      -231397 3 0   0
348      2638.69 6 0   0
349     -1986.89 6 0   0
350       173667 3 0   0
351       233384 3 0   0
352     -2661.08 6 0   0
353      1956.81 6 0   0
354      -171006 3 0   0
355      -235340 3 0   0
356      2683.13 6 0   0
357     -1926.47 6 0   0
358       168323 3 0   0
359       237267 3 0   0
360     -2704.83 6 0   0
361      1895.88 6 0   0
362      -165618 3 0   0
363      -239163 3 0   0
364      2726.18 6 0   0
365     -1865.04 6 0   0
366       162892 3 0   0
367       241028 3 0   0
368     -2747.18 6 0   0
369      1833.97 6 0   0
370      -160145 3 0   0
371      -242862 3 0   0
372      2767.83 6 0   0
373     -1802.66 6 0   0
374       157377 3 0   0
375       244664 3 0   0
376     -2788.12 6 0   0
377      1771.12 6 0   0
378      -154589 3 0   0
379      -246436 3 0   0
380      2808.04 6 0   0
381     -1739.34 6 0   0
382      -151781 6 0   0
383      -248175 6 0   0
384       151781 3 0   0
385       248175 3 0   0
386     -2827.61 6 0   0
387      1707.35 6 0   0
388      -148953 3 0   0
389      -249882 3 0   0
390      2846.82 6 0   0
391     -1675.13 6 0   0
392       146106 3 0   0
393       251557 3 0   0
394     -2865.65 6 0   0
395       1642.7 6 0   0
396      -143240 3 0   0
397      -253200 3 0   0
398      2884.12 6 0   0
399     -1610.06 6 0   0
400       140356 3 0   0
401       254810 3 0   0
402     -2902.21 6 0   0
403      1577.21 6 0   0
404      -137454 3 0   0
405      -256387 3 0   0
406      2919.94 6 0   0
407     -1544.16 6 0   0
408       134534 3 0   0
409       257931 3 0   0
410     -2937.28 6 0   0
411       1510.9 6 0   0
412      -131597 3 0   0
413      -259442 3 0   0
414      2954.25 6 0   0
415     -1477.45 6 0   0
416       128643 3 0   0
417       260920 3 0   0
418     -2970.83 6 0   0
419      1443.82 6 0   0
420       125672 6 0   0
421       262364 6 0   0
422      -125672 3 0   0
423      -262364 3 0   0
424      2987.03 6 0   0
425     -1409.99 6 0   0
426       122685 3 0   0
427       263774 3 0   0
428     -3002.85 6 0   0
429      1375.99 6 0   0
430      -119682 3 0   0
431      -265150 3 0   0
432      3018.28 6 0   0
433      -1341.8 6 0   0
434       116664 3 0   0
435       266491 3 0   0
436     -3033.32 6 0   0
437      1307.44 6 0   0
438      -113630 3 0   0
439      -267799 3 0   0
440      3047.97 6 0   0
441     -1272.92 6 0   0
442       110582 3 0   0
443       269072 3 0   0
444     -3062.23 6 0   0
445      1238.23 6 0   0
446      -107520 3 0   0
447      -270310 3 0   0
448      3076.09 6 0   0
449     -1203.38 6 0   0
450       104444 3 0   0
451       271513 3 0   0
452     -3089.55 6 0   0
453      1168.38 6 0   0
454      -101355 3 0   0
455      -272682 3 0   0
456      3102.62 6 0   0
457     -1133.22 6 0   0
458     -98251.9 6 0   0
459      -273815 6 0   0
460      98251.9 3 0   0
461       273815 3 0   0
462     -3115.29 6 0   0
463      1097.92 6 0   0
464     -95136.6 3 0   0
465      -274913 3 0   0
466      3127.55 6 0   0
467     -1062.48 6 0   0
468        92009 3 0   0
469       275975 3 0   0
470     -3139.41 6 0   0
471       1026.9 6 0   0
472     -88869.6 3 0   0
473      -277002 3 0   0
474      3150.87 6 0   0
475     -991.188 6 0   0
476      85718.8 3 0   0
477       277994 3 0   0
478     -3161.92 6 0   0
479      955.349 6 0   0
480     -82556.8 3 0   0
481      -278949 3 0   0
482      3172.56 6 0   0
483     -919.386 6 0   0
484      79384.3 3 0   0
485       279868 3 0   0
486      -3182.8 6 0   0
487      883.305 6 0   0
488     -76201.5 3 0   0
489      -280752 3 0   0
490      3192.62 6 0   0
491      -847.11 6 0   0
492      73008.9 3 0   0
493       281599 3 0   0
494     -3202.04 6 0   0
495      810.805 6 0   0
496      69806.8 6 0   0
497       282409 6 0   0
498     -69806.8 3 0   0
499      -282409 3 0   0
500      3211.04 6 0   0
501     -774.397 6 0   0
502      66595.8 3 0   0
503       283184 3 0   0
504     -3219.62 6 0   0
505      737.888 6 0   0
506     -63376.2 3 0   0
507      -283922 3 0   0
508      3227.79 6 0   0
509     -701.284 6 0   0
510      60148.4 3 0   0
511       284623 3 0   0
512     -3235.55 6 0   0
513       664.59 6 0   0
514     -56912.8 3 0   0
515      -285288 3 0   0
516      3242.88 6 0   0
517      -627.81 6 0   0
518      53669.9 3 0   0
519       285915 3 0   0
520      -3249.8 6 0   0
521      590.949 6 0   0
522     -50420.1 3 0   0
523      -286506 3 0   0
524       3256.3 6 0   0
525     -554.012 6 0   0
526      47163.8 3 0   0
527       287060 3 0   0
528     -3262.38 6 0   0
529      517.004 6 0   0
530     -43901.5 3 0   0
531      -287577 3 0   0
532      3268.04 6 0   0
533     -479.929 6 0   0
534     -40633.4 6 0   0
535      -288057 6 0   0
536      40633.4 3 0   0
537       288057 3 0   0
538     -3273.28 6 0   0
539      442.792 6 0   0
540     -37360.1 3 0   0
541      -288500 3 0   0
542       3278.1 6 0   0
543     -405.598 6 0   0
544        34082 3 0   0
545       288906 3 0   0
546     -3282.49 6 0   0
547      368.351 6 0   0
548     -30799.5 3 0   0
549      -289274 3 0   0
550      3286.46 6 0   0
551     -331.057 6 0   0
552      27513.1 3 0   0
553       289605 3 0   0
554     -3290.01 6 0   0
555      293.721 6 0   0
556     -24223.1 3 0   0
557      -289899 3 0   0
558      3293.13 6 0   0
559     -256.346 6 0   0
560      20929.9 3 0   0
561       290155 3 0   0
562     -3295.83 6 0   0
563      218.939 6 0   0
564     -17634.1 3 0   0
565      -290374 3 0   0
566       3298.1 6 0   0
567     -181.503 6 0   0
568        14336 3 0   0
569       290556 3 0   0
570     -3299.95 6 0   0
571      144.044 6 0   0
572        11036 6 0   0
573       290700 6 0   0
574       -11036 3 0   0
575      -290700 3 0   0
576      3301.38 6 0   0
577     -106.567 6 0   0
578      7734.67 3 0   0
579       290806 3 0   0
580     -3302.37 6 0   0
581      69.0753 6 0   0
582      -4432.3 3 0   0
583      -290875 3 0   0
584      3302.94 6 0   0
585     -31.5751 6 0   0
586      1129.35 3 0   0
587       290907 3 0   0
588     -3303.09 6 0   0
589     -5.92928 6 0   0
590      2173.74 3 0   0
591      -290901 3 0   0
592      3302.81 6 0   0
593      43.4329 6 0   0
594     -5476.55 3 0   0
595       290858 3 0   0
596      -3302.1 6 0   0
597     -80.9308 6 0   0
598      8778.65 3 0   0
599      -290777 3 0   0
600      3300.97 6 0   0
601      118.418 6 0   0
602     -12079.6 3 0   0
603       290658 3 0   0
604     -3299.41 6 0   0
605     -155.891 6 0   0
606        15379 3 0   0
607      -290502 3 0   0
608      3297.43 6 0   0
609      193.343 6 0   0
610      18676.5 6 0   0
611      -290309 6 0   0
612     -18676.5 3 0   0
613       290309 3 0   0
614     -3295.02 6 0   0
615      -230.77 6 0   0
616      21971.5 3 0   0
617      -290078 3 0   0
618      3292.19 6 0   0
619      268.168 6 0   0
620     -25263.7 3 0   0
621       289810 3 0   0
622     -3288.93 6 0   0
623     -305.531 6 0   0
624      28552.6 3 0   0
625      -289504 3 0   0
626      3285.25 6 0   0
627      342.854 6 0   0
628     -31837.9 3 0   0
629       289162 3 0   0
630     -3281.15 6 0   0
631     -380.133 6 0   0
632        35119 3 0   0
633      -288781 3 0   0
634      3276.62 6 0   0
635      417.364 6 0   0
636     -38395.6 3 0   0
637       288364 3 0   0
638     -3271.67 6 0   0
639      -454.54 6 0   0
640      41667.3 3 0   0
641      -287910 3 0   0
642       3266.3 6 0   0
643      491.658 6 0   0
644     -44933.6 3 0   0
645       287418 3 0   0
646     -3260.51 6 0   0
647     -528.713 6 0   0
648     -48194.1 6 0   0
649       286889 6 0   0
650      48194.1 3 0   0
651      -286889 3 0   0
652      3254.29 6 0   0
653      565.699 6 0   0
654     -51448.4 3 0   0
655       286324 3 0   0
656     -3247.66 6 0   0
657     -602.613 6 0   0
658      54696.1 3 0   0
659      -285721 3 0   0
660      3240.61 6 0   0
661      639.448 6 0   0
662     -57936.7 3 0   0
663       285081 3 0   0
664     -3233.14 6 0   0
665     -676.202 6 0   0
666      61169.8 3 0   0
667      -284405 3 0   0
668      3225.25 6 0   0
669      712.868 6 0   0
670     -64395.1 3 0   0
671       283692 3 0   0
672     -3216.95 6 0   0
673     -749.442 6 0   0
674        67612 3 0   0
675      -282943 3 0   0
676      3208.23 6 0   0
677       785.92 6 0   0
678     -70820.3 3 0   0
679       282157 3 0   0
680      -3199.1 6 0   0
681     -822.296 6 0   0
682      74019.4 3 0   0
683      -281335 3 0   0
684      3189.56 6 0   0
685      858.566 6 0   0
686      77208.9 6 0   0
687      -280476 6 0   0
688     -77208.9 3 0   0
689       280476 3 0   0
690     -3179.61 6 0   0
691     -894.726 6 0   0
692      80388.5 3 0   0
693      -279581 3 0   0
694      3169.24 6 0   0
695       930.77 6 0   0
696     -83557.8 3 0   0
697       278651 3 0   0
698     -3158.47 6 0   0
699     -966.694 6 0   0
700      86716.2 3 0   0
701      -277684 3 0   0
702      3147.29 6 0   0
703      1002.49 6 0   0
704     -89863.5 3 0   0
705       276681 3 0   0
706     -3135.71 6 0   0
707     -1038.16 6 0   0
708      92999.2 3 0   0
709      -275643 3 0   0
710      3123.72 6 0   0
711       1073.7 6 0   0
712       -96123 3 0   0
713       274570 3 0   0
714     -3111.32 6 0   0
715      -1109.1 6 0   0
716      99234.3 3 0   0
717      -273461 3 0   0
718      3098.53 6 0   0
719      1144.35 6 0   0
720      -102333 3 0   0
721       272316 3 0   0
722     -3085.34 6 0   0
723     -1179.46 6 0   0
724       105418 6 0   0
725      -271137 6 0   0
726      -105418 3 0   0
727       271137 3 0   0
728     -3071.75 6 0   0
729     -1214.42 6 0   0
730       108490 3 0   0
731      -269922 3 0   0
732      3057.76 6 0   0
733      1249.22 6 0   0
734      -111548 3 0   0
735       268673 3 0   0
736     -3043.38 6 0   0
737     -1283.85 6 0   0
738       114591 3 0   0
739      -267389 3 0   0
740      3028.61 6 0   0
741      1318.33 6 0   0
742      -117620 3 0   0
743       266071 3 0   0
744     -3013.44 6 0   0
745     -1352.63 6 0   0
746       120633 3 0   0
747      -264718 3 0   0
748      2997.89 6 0   0
749      1386.76 6 0   0
750      -123631 3 0   0
751       263332 3 0   0
752     -2981.95 6 0   0
753     -1420.71 6 0   0
754       126613 3 0   0
755      -261911 3 0   0
756      2965.63 6 0   0
757      1454.47 6 0   0
758      -129579 3 0   0
759       260456 3 0   0
760     -2948.92 6 0   0
761     -1488.05 6 0   0
762      -132527 6 0   0
763       258968 6 0   0
764       132527 3 0   0
765      -258968 3 0   0
766      2931.84 6 0   0
767      1521.44 6 0   0
768      -135459 3 0   0
769       257447 3 0   0
770     -2914.37 6 0   0
771     -1554.63 6 0   0
772       138374 3 0   0
773      -255892 3 0   0
774      2896.53 6 0   0
775      1587.62 6 0   0
776      -141270 3 0   0
777       254305 3 0   0
778     -2878.32 6 0   0
779      -1620.4 6 0   0
780       144149 3 0   0
781      -252684 3 0   0
782      2859.74 6 0   0
783      1652.98 6 0   0
784      -147008 3 0   0
785       251031 3 0   0
786     -2840.78 6 0   0
787     -1685.34 6 0   0
788       149849 3 0   0
789      -249346 3 0   0
790      2821.46 6 0   0
791      1717.49 6 0   0
792      -152671 3 0   0
793       247628 3 0   0
794     -2801.78 6 0   0
795     -1749.42 6 0   0
796       155472 3 0   0
