# Pulseq sequence file
# Created by PyPulseq

[VERSION]
major 1
minor 4
revision 2

[DEFINITIONS]
AdcRasterTime 1e-07 
BlockDurationRaster 1e-05 
FOV 0.256 0.256 0.016 
GradientRasterTime 1e-05 
Name QRAGE 
RES 256 256 16 
RadiofrequencyRasterTime 1e-06 
TotalDuration 16.59648 

# Format of blocks:
# NUM DUR RF  GX  GY  GZ  ADC  EXT
[BLOCKS]
   1 1036   1   0   0   0  0  0
   2 500   0   1   1   1  0  0
   3   0   0   0   0   0  0  0
   4 220   2   0   0   2  0  0
   5  90   0   3   4   5  0  3
   6 265   0   6   7   0  1  4
   7  40   0   8   9   0  0  0
   8 265   0  10  11   0  1  5
   9  40   0  12  13   0  0  0
  10 265   0  14  15   0  1  6
  11 245   0  16  17  18  0  0
  12 220   3   0   0   2  0  0
  13  90   0   3   4  19  0  8
  14 265   0   6   7   0  2  4
  15  40   0   8   9   0  0  0
  16 265   0  10  11   0  2  5
  17  40   0  12  13   0  0  0
  18 265   0  14  15   0  2  6
  19 245   0  16  17  20  0  0
  20 220   4   0   0   2  0  0
  21  90   0   3   4  21  0  9
  22 265   0   6   7   0  3  4
  23  40   0   8   9   0  0  0
  24 265   0  10  11   0  3  5
  25  40   0  12  13   0  0  0
  26 265   0  14  15   0  3  6
  27 245   0  16  17  22  0  0
  28 220   5   0   0   2  0  0
  29  90   0   3   4  23  0 10
  30 265   0   6   7   0  4  4
  31  40   0   8   9   0  0  0
  32 265   0  10  11   0  4  5
  33  40   0  12  13   0  0  0
  34 265   0  14  15   0  4  6
  35 245   0  16  17  24  0  0
  36 220   6   0   0   2  0  0
  37  90   0   3   4  25  0 11
  38 265   0   6   7   0  5  4
  39  40   0   8   9   0  0  0
  40 265   0  10  11   0  5  5
  41  40   0  12  13   0  0  0
  42 265   0  14  15   0  5  6
  43 245   0  16  17  26  0  0
  44 220   7   0   0   2  0  0
  45  90   0   3   4  27  0 12
  46 265   0   6   7   0  6  4
  47  40   0   8   9   0  0  0
  48 265   0  10  11   0  6  5
  49  40   0  12  13   0  0  0
  50 265   0  14  15   0  6  6
  51 245   0  16  17  28  0  0
  52 220   8   0   0   2  0  0
  53  90   0   3   4  29  0 13
  54 265   0   6   7   0  7  4
  55  40   0   8   9   0  0  0
  56 265   0  10  11   0  7  5
  57  40   0  12  13   0  0  0
  58 265   0  14  15   0  7  6
  59 245   0  16  17  30  0  0
  60 220   9   0   0   2  0  0
  61  90   0   3   4  31  0 14
  62 265   0   6   7   0  8  4
  63  40   0   8   9   0  0  0
  64 265   0  10  11   0  8  5
  65  40   0  12  13   0  0  0
  66 265   0  14  15   0  8  6
  67 245   0  16  17  32  0  0
  68 220   2   0   0   2  0  0
  69  90   0   3   4  33  0 15
  70 265   0   6   7   0  1  4
  71  40   0   8   9   0  0  0
  72 265   0  10  11   0  1  5
  73  40   0  12  13   0  0  0
  74 265   0  14  15   0  1  6
  75 245   0  16  17  34  0  0
  76 220  10   0   0   2  0  0
  77  90   0   3   4  35  0 16
  78 265   0   6   7   0  9  4
  79  40   0   8   9   0  0  0
  80 265   0  10  11   0  9  5
  81  40   0  12  13   0  0  0
  82 265   0  14  15   0  9  6
  83 245   0  16  17  36  0  0
  84 220  11   0   0   2  0  0
  85  90   0   3   4  37  0 17
  86 265   0   6   7   0 10  4
  87  40   0   8   9   0  0  0
  88 265   0  10  11   0 10  5
  89  40   0  12  13   0  0  0
  90 265   0  14  15   0 10  6
  91 245   0  16  17  38  0  0
  92 220  12   0   0   2  0  0
  93  90   0   3   4  39  0 18
  94 265   0   6   7   0 11  4
  95  40   0   8   9   0  0  0
  96 265   0  10  11   0 11  5
  97  40   0  12  13   0  0  0
  98 265   0  14  15   0 11  6
  99 245   0  16  17  40  0  0
 100 220   5   0   0   2  0  0
 101  90   0   3   4  41  0 19
 102 265   0   6   7   0  4  4
 103  40   0   8   9   0  0  0
 104 265   0  10  11   0  4  5
 105  40   0  12  13   0  0  0
 106 265   0  14  15   0  4  6
 107 245   0  16  17  42  0  0
 108 220  11   0   0   2  0  0
 109  90   0   3   4  43  0 20
 110 265   0   6   7   0 10  4
 111  40   0   8   9   0  0  0
 112 265   0  10  11   0 10  5
 113  40   0  12  13   0  0  0
 114 265   0  14  15   0 10  6
 115 245   0  16  17  44  0  0
 116 220  13   0   0   2  0  0
 117  90   0   3   4  45  0 21
 118 265   0   6   7   0 12  4
 119  40   0   8   9   0  0  0
 120 265   0  10  11   0 12  5
 121  40   0  12  13   0  0  0
 122 265   0  14  15   0 12  6
 123 245   0  16  17  46  0  0
 124 220  14   0   0   2  0  0
 125  90   0   3   4  47  0 22
 126 265   0   6   7   0 13  4
 127  40   0   8   9   0  0  0
 128 265   0  10  11   0 13  5
 129  40   0  12  13   0  0  0
 130 265   0  14  15   0 13  6
 131 245   0  16  17  48  0  0
 132   0   0   0   0   0  0  0
 133 220   9   0   0   2  0  0
 134  90   0  49  50   5  0 23
 135 265   0  51  52   0  8  4
 136  40   0  53  54   0  0  0
 137 265   0  55  56   0  8  5
 138  40   0  57  58   0  0  0
 139 265   0  59  60   0  8  6
 140 245   0  61  62  18  0  0
 141 220  10   0   0   2  0  0
 142  90   0  49  50  19  0 25
 143 265   0  51  52   0  9  4
 144  40   0  53  54   0  0  0
 145 265   0  55  56   0  9  5
 146  40   0  57  58   0  0  0
 147 265   0  59  60   0  9  6
 148 245   0  61  62  20  0  0
 149 220  15   0   0   2  0  0
 150  90   0  49  50  21  0 27
 151 265   0  51  52   0 14  4
 152  40   0  53  54   0  0  0
 153 265   0  55  56   0 14  5
 154  40   0  57  58   0  0  0
 155 265   0  59  60   0 14  6
 156 245   0  61  62  22  0  0
 157 220   6   0   0   2  0  0
 158  90   0  49  50  23  0 29
 159 265   0  51  52   0  5  4
 160  40   0  53  54   0  0  0
 161 265   0  55  56   0  5  5
 162  40   0  57  58   0  0  0
 163 265   0  59  60   0  5  6
 164 245   0  61  62  24  0  0
 165 220  12   0   0   2  0  0
 166  90   0  49  50  25  0 31
 167 265   0  51  52   0 11  4
 168  40   0  53  54   0  0  0
 169 265   0  55  56   0 11  5
 170  40   0  57  58   0  0  0
 171 265   0  59  60   0 11  6
 172 245   0  61  62  26  0  0
 173 220   7   0   0   2  0  0
 174  90   0  49  50  27  0 33
 175 265   0  51  52   0  6  4
 176  40   0  53  54   0  0  0
 177 265   0  55  56   0  6  5
 178  40   0  57  58   0  0  0
 179 265   0  59  60   0  6  6
 180 245   0  61  62  28  0  0
 181 220   3   0   0   2  0  0
 182  90   0  49  50  29  0 35
 183 265   0  51  52   0  2  4
 184  40   0  53  54   0  0  0
 185 265   0  55  56   0  2  5
 186  40   0  57  58   0  0  0
 187 265   0  59  60   0  2  6
 188 245   0  61  62  30  0  0
 189 220  16   0   0   2  0  0
 190  90   0  49  50  31  0 37
 191 265   0  51  52   0 15  4
 192  40   0  53  54   0  0  0
 193 265   0  55  56   0 15  5
 194  40   0  57  58   0  0  0
 195 265   0  59  60   0 15  6
 196 245   0  61  62  32  0  0
 197 220  14   0   0   2  0  0
 198  90   0  49  50  33  0 39
 199 265   0  51  52   0 13  4
 200  40   0  53  54   0  0  0
 201 265   0  55  56   0 13  5
 202  40   0  57  58   0  0  0
 203 265   0  59  60   0 13  6
 204 245   0  61  62  34  0  0
 205 220   3   0   0   2  0  0
 206  90   0  49  50  35  0 41
 207 265   0  51  52   0  2  4
 208  40   0  53  54   0  0  0
 209 265   0  55  56   0  2  5
 210  40   0  57  58   0  0  0
 211 265   0  59  60   0  2  6
 212 245   0  61  62  36  0  0
 213 220  15   0   0   2  0  0
 214  90   0  49  50  37  0 43
 215 265   0  51  52   0 14  4
 216  40   0  53  54   0  0  0
 217 265   0  55  56   0 14  5
 218  40   0  57  58   0  0  0
 219 265   0  59  60   0 14  6
 220 245   0  61  62  38  0  0
 221 220  17   0   0   2  0  0
 222  90   0  49  50  39  0 45
 223 265   0  51  52   0 16  4
 224  40   0  53  54   0  0  0
 225 265   0  55  56   0 16  5
 226  40   0  57  58   0  0  0
 227 265   0  59  60   0 16  6
 228 245   0  61  62  40  0  0
 229 220   6   0   0   2  0  0
 230  90   0  49  50  41  0 47
 231 265   0  51  52   0  5  4
 232  40   0  53  54   0  0  0
 233 265   0  55  56   0  5  5
 234  40   0  57  58   0  0  0
 235 265   0  59  60   0  5  6
 236 245   0  61  62  42  0  0
 237 220   4   0   0   2  0  0
 238  90   0  49  50  43  0 49
 239 265   0  51  52   0  3  4
 240  40   0  53  54   0  0  0
 241 265   0  55  56   0  3  5
 242  40   0  57  58   0  0  0
 243 265   0  59  60   0  3  6
 244 245   0  61  62  44  0  0
 245 220  13   0   0   2  0  0
 246  90   0  49  50  45  0 51
 247 265   0  51  52   0 12  4
 248  40   0  53  54   0  0  0
 249 265   0  55  56   0 12  5
 250  40   0  57  58   0  0  0
 251 265   0  59  60   0 12  6
 252 245   0  61  62  46  0  0
 253 220   9   0   0   2  0  0
 254  90   0  49  50  47  0 53
 255 265   0  51  52   0  8  4
 256  40   0  53  54   0  0  0
 257 265   0  55  56   0  8  5
 258  40   0  57  58   0  0  0
 259 265   0  59  60   0  8  6
 260 245   0  61  62  48  0  0
 261   0   0   0   0   0  0  0
 262 220  16   0   0   2  0  0
 263  90   0  63  64   5  0 54
 264 265   0  65  66   0 15  4
 265  40   0  67  68   0  0  0
 266 265   0  69  70   0 15  5
 267  40   0  71  72   0  0  0
 268 265   0  73  74   0 15  6
 269 245   0  75  76  18  0  0
 270 220   8   0   0   2  0  0
 271  90   0  63  64  19  0 55
 272 265   0  65  66   0  7  4
 273  40   0  67  68   0  0  0
 274 265   0  69  70   0  7  5
 275  40   0  71  72   0  0  0
 276 265   0  73  74   0  7  6
 277 245   0  75  76  20  0  0
 278 220  11   0   0   2  0  0
 279  90   0  63  64  21  0 56
 280 265   0  65  66   0 10  4
 281  40   0  67  68   0  0  0
 282 265   0  69  70   0 10  5
 283  40   0  71  72   0  0  0
 284 265   0  73  74   0 10  6
 285 245   0  75  76  22  0  0
 286 220  17   0   0   2  0  0
 287  90   0  63  64  23  0 57
 288 265   0  65  66   0 16  4
 289  40   0  67  68   0  0  0
 290 265   0  69  70   0 16  5
 291  40   0  71  72   0  0  0
 292 265   0  73  74   0 16  6
 293 245   0  75  76  24  0  0
 294 220  17   0   0   2  0  0
 295  90   0  63  64  25  0 58
 296 265   0  65  66   0 16  4
 297  40   0  67  68   0  0  0
 298 265   0  69  70   0 16  5
 299  40   0  71  72   0  0  0
 300 265   0  73  74   0 16  6
 301 245   0  75  76  26  0  0
 302 220  11   0   0   2  0  0
 303  90   0  63  64  27  0 59
 304 265   0  65  66   0 10  4
 305  40   0  67  68   0  0  0
 306 265   0  69  70   0 10  5
 307  40   0  71  72   0  0  0
 308 265   0  73  74   0 10  6
 309 245   0  75  76  28  0  0
 310 220   8   0   0   2  0  0
 311  90   0  63  64  29  0 60
[RF]
1      406.165 1 2 3 100 0 0
2      69.4997 4 5 0 150 0 0
3      69.4997 4 5 0 150 0 0.872665
4      69.4997 4 5 0 150 0 2.61799
5      69.4997 4 5 0 150 0 5.23599
6      69.4997 4 5 0 150 0 2.44346
7      69.4997 4 5 0 150 0 0.523599
8      69.4997 4 5 0 150 0 5.75959
9      69.4997 4 5 0 150 0 5.58505
10      69.4997 4 5 0 150 0 1.5708
11      69.4997 4 5 0 150 0 4.01426
12      69.4997 4 5 0 150 0 1.0472
13      69.4997 4 5 0 150 0 3.66519
14      69.4997 4 5 0 150 0 4.18879
15      69.4997 4 5 0 150 0 4.71239
16      69.4997 4 5 0 150 0 2.0944
17      69.4997 4 5 0 150 0 3.14159

# Format of arbitrary gradients:
#   time_shape_id of 0 means default timing (stepping with grad_raster starting at 1/2 of grad_raster)
# id amplitude amp_shape_id time_shape_id delay
# ..      Hz/m       ..         ..          us
[GRADIENTS]
3 -1.07422e+06 6 7 100
4            0 8 7 100
6       390625 9 10 0
7            0 11 10 0
8       390625 12 13 0
9       385911 14 13 0
10      -389615 9 10 0
11     -28066.2 9 10 0
12      -389615 15 13 0
13      -383916 16 13 0
14       386592 9 10 0
15      55987.4 9 10 0
16  1.16132e+06 17 18 0
17  1.16132e+06 19 18 0
49 -1.04932e+06 6 7 100
50      -229953 6 7 100
51       381570 9 10 0
52      83619.1 9 10 0
53       381570 20 13 0
54       373993 21 13 0
55      -374576 9 10 0
56      -110819 9 10 0
57      -374576 22 13 0
58      -366117 23 13 0
59       365646 9 10 0
60       137445 9 10 0
61  1.16132e+06 24 18 0
62  1.16132e+06 25 18 0
63      -975769 6 7 100
64      -449244 6 7 100
65       354825 9 10 0
66       163362 9 10 0
67       354825 26 13 0
68       344737 27 13 0
69      -342171 9 10 0
70      -188433 9 10 0
71      -342171 28 13 0
72      -331345 29 13 0
73       327747 9 10 0
74       212531 9 10 0
75  1.16132e+06 30 18 0
76  1.16132e+06 31 18 0
77      -856983 6 7 100
78      -647709 6 7 100
79       311630 9 10 0
80       235530 9 10 0
81       311630 32 13 0
82       299499 33 13 0
83      -293902 9 10 0
84      -257312 9 10 0
85      -293902 34 13 0
86      -281211 35 13 0
87       274655 9 10 0
88       277764 9 10 0
89  1.16132e+06 36 18 0
90  1.16132e+06 37 18 0
91      -698466 6 7 100
92      -816144 6 7 100
93       253987 9 10 0
94       296780 9 10 0
95       302224 38 13 0
96       314262 39 13 0
97      -232008 9 10 0
98      -314262 9 10 0
99      -318714 40 13 0
100      -330119 41 13 0
101       208828 9 10 0
102       330119 9 10 0
103  1.16132e+06 42 18 0
104  1.16132e+06 43 18 0
105      -507567 6 7 100
106      -946743 6 7 100
107       184570 9 10 0
108       344270 9 10 0
109       346674 44 13 0
110       356642 45 13 0
111      -159357 9 10 0
112      -356642 9 10 0
113      -358001 46 13 0
114      -367170 47 13 0
115       133321 9 10 0
116       367170 9 10 0
117  1.16132e+06 48 18 0
118  1.16132e+06 49 18 0
119      -293137 6 7 100
120 -1.03345e+06 6 7 100
121       106595 9 10 0
122       375800 9 10 0
123       375052 50 13 0
124       382487 51 13 0
125     -79318.6 9 10 0
126      -382487 9 10 0
127      -380690 52 13 0
128      -387198 53 13 0
129        51632 9 10 0
130       387198 9 10 0
131  1.16132e+06 54 18 0
132  1.16132e+06 55 18 0
133     -65116.2 6 7 100
134 -1.07224e+06 6 7 100
135      23678.6 9 10 0
136       389907 9 10 0
137       386043 56 13 0
138       390600 57 13 0
139      4397.22 9 10 0
140      -390600 9 10 0
141       385730 58 13 0
142      -390600 59 13 0
143     -32450.3 9 10 0
144       389275 9 10 0
145 -1.16132e+06 60 18 0
146  1.16132e+06 61 18 0
147       165923 6 7 100
148 -1.06133e+06 6 7 100
149     -60335.7 9 10 0
150       385937 9 10 0
151      -379135 62 13 0
152       385937 63 13 0
153      87909.1 9 10 0
154      -380605 9 10 0
155       372887 64 13 0
156      -380605 65 13 0
157      -115028 9 10 0
158       373305 9 10 0
159 -1.16132e+06 66 18 0
160  1.16132e+06 67 18 0
161       389270 6 7 100
162 -1.00121e+06 6 7 100
163      -141553 9 10 0
164       364075 9 10 0
165      -354651 68 13 0
166       364075 69 13 0
167       167345 9 10 0
168      -352964 9 10 0
169       342757 70 13 0
170      -352964 71 13 0
171      -192273 9 10 0
172       340028 9 10 0
173 -1.16132e+06 72 18 0
174  1.16132e+06 73 18 0
175       594570 6 7 100
176      -894669 6 7 100
177      -216207 9 10 0
178       325334 9 10 0
179      -313725 74 13 0
180       325334 75 13 0
181       239024 9 10 0
182      -308959 9 10 0
183       296736 76 13 0
184      -308959 77 13 0
185      -260604 9 10 0
186       290987 9 10 0
187 -1.16132e+06 78 18 0
188  1.16132e+06 79 18 0
189       772305 6 7 100
190      -746654 6 7 100
191      -280838 9 10 0
192       271510 9 10 0
193      -299620 80 13 0
194       287097 81 13 0
195       299620 9 10 0
196      -250631 9 10 0
197       316853 82 13 0
198      -304911 83 13 0
199      -316853 9 10 0
200       228455 9 10 0
201 -1.16132e+06 84 18 0
202  1.16132e+06 85 18 0
203       914235 6 7 100
204      -564022 6 7 100
205      -332449 9 10 0
206       205099 9 10 0
207      -346326 86 13 0
208       335725 87 13 0
209       346326 9 10 0
210      -180683 9 10 0
211       358413 88 13 0
212      -348567 89 13 0
213      -358413 9 10 0
214       155332 9 10 0
215 -1.16132e+06 90 18 0
216  1.16132e+06 91 18 0
217  1.01378e+06 6 7 100
218      -355242 6 7 100
219      -368647 9 10 0
220       129179 9 10 0
221      -376976 92 13 0
222       368789 93 13 0
223       376976 9 10 0
224      -102358 9 10 0
225       383356 94 13 0
226      -376064 95 13 0
227      -383356 9 10 0
228      75007.9 9 10 0
229 -1.16132e+06 96 18 0
230  1.16132e+06 97 18 0
231  1.06632e+06 6 7 100
232      -129993 6 7 100
233      -387754 9 10 0
234      47270.1 9 10 0
235      -390149 98 13 0
236       384755 99 13 0
237       390149 9 10 0
238       -19288 9 10 0
239       390526 100 13 0
240      -386125 101 13 0
241      -390526 9 10 0
242     -8793.88 9 10 0
243 -1.16132e+06 102 18 0
244 -1.16132e+06 103 18 0
245  1.06943e+06 6 7 100
246       101283 6 7 100
247      -388885 9 10 0
248     -36830.3 9 10 0
249      -388885 104 13 0
250      -382883 105 13 0
251       385234 9 10 0
252      64676.3 9 10 0
253       385234 106 13 0
254       378286 107 13 0
255      -379591 9 10 0
256       -92188 9 10 0
257 -1.16132e+06 108 18 0
258 -1.16132e+06 109 18 0
259  1.02296e+06 6 7 100
260       327864 6 7 100
261      -371986 9 10 0
262      -119223 9 10 0
263      -371986 110 13 0
264      -363260 111 13 0
265       362459 9 10 0
266       145642 9 10 0
267       362459 112 13 0
268       352909 113 13 0
269      -351058 9 10 0
270      -171308 9 10 0
271 -1.16132e+06 114 18 0
272 -1.16132e+06 115 18 0
273       929065 6 7 100
274       539244 6 7 100
275      -337842 9 10 0
276      -196089 9 10 0
277      -337842 116 13 0
278      -326796 117 13 0
279       322880 9 10 0
280       219856 9 10 0
281       322880 118 13 0
282       311170 119 13 0
283      -306249 9 10 0
284      -242486 9 10 0
285 -1.16132e+06 120 18 0
286 -1.16132e+06 121 18 0
287       792095 6 7 100
288       725624 6 7 100
289      -288035 9 10 0
290      -263863 9 10 0
291      -288035 122 13 0
292      -283877 123 13 0
293       268332 9 10 0
294       283877 9 10 0
295       289986 124 13 0
296       302422 125 13 0
297      -247242 9 10 0
298      -302422 9 10 0
299 -1.16132e+06 126 18 0
300 -1.16132e+06 127 18 0
301       618403 6 7 100
302       878364 6 7 100
303      -224874 9 10 0
304      -319405 9 10 0
305      -323542 128 13 0
306      -334737 129 13 0
307       201344 9 10 0
308       334737 9 10 0
309       337852 130 13 0
310       348338 131 13 0
311      -176773 9 10 0
312      -348338 9 10 0
313 -1.16132e+06 132 18 0
314 -1.16132e+06 133 18 0
315       416042 6 7 100
316       990381 6 7 100
317      -151288 9 10 0
318      -360139 9 10 0
319      -361169 134 13 0
320      -370078 135 13 0
321       125021 9 10 0
322       370078 9 10 0
323       370054 136 13 0
324       378104 137 13 0
325       -98108 9 10 0
326      -378104 9 10 0
327 -1.16132e+06 138 18 0
328 -1.16132e+06 139 18 0
329       194391 6 7 100
330  1.05648e+06 6 7 100
331     -70687.8 9 10 0
332      -384176 9 10 0
333      -382051 140 13 0
334      -388262 141 13 0
335      42902.2 9 10 0
336       388262 9 10 0
337       385101 142 13 0
338       390341 143 13 0
339     -14894.9 9 10 0
340      -390341 9 10 0
341 -1.16132e+06 144 18 0
342 -1.16132e+06 145 18 0
343     -36270.9 6 7 100
344  1.07361e+06 6 7 100
345      13189.4 9 10 0
346      -390402 9 10 0
347       385222 146 13 0
348      -390402 147 13 0
349     -41205.6 9 10 0
350       388446 9 10 0
351      -382293 148 13 0
352       388446 149 13 0
353      69008.7 9 10 0
354      -384481 9 10 0
355  1.16132e+06 150 18 0
356 -1.16132e+06 151 18 0
357      -265252 6 7 100
358  1.04096e+06 6 7 100
359      96455.2 9 10 0
360      -378529 9 10 0
361       370533 152 13 0
362      -378529 153 13 0
363      -123403 9 10 0
364       370621 9 10 0
365      -361762 154 13 0
366       370621 155 13 0
367       149713 9 10 0
368      -360796 9 10 0
369  1.16132e+06 156 18 0
370 -1.16132e+06 157 18 0
371      -481935 6 7 100
372       960044 6 7 100
373       175249 9 10 0
374      -349107 9 10 0
375       338666 158 13 0
376      -349107 159 13 0
377      -199879 9 10 0
378       335613 9 10 0
379      -324460 160 13 0
380       335613 161 13 0
381       223476 9 10 0
382      -320384 9 10 0
383  1.16132e+06 162 18 0
384 -1.16132e+06 163 18 0
385      -676275 6 7 100
386       834624 6 7 100
387       245918 9 10 0
388      -303500 9 10 0
389       291098 164 13 0
390      -303500 165 13 0
391      -267089 9 10 0
392       285046 9 10 0
393      -286879 166 13 0
394       285046 167 13 0
395       286879 9 10 0
396      -265119 9 10 0
397  1.16132e+06 168 18 0
398 -1.16132e+06 169 18 0
399      -839263 6 7 100
400       670510 6 7 100
401       305186 9 10 0
402      -243822 9 10 0
403       321916 170 13 0
404      -310168 171 13 0
405      -321916 9 10 0
406       221264 9 10 0
407      -336982 172 13 0
408       325894 173 13 0
409       336982 9 10 0
410      -197563 9 10 0
411  1.16132e+06 174 18 0
412 -1.16132e+06 175 18 0
413      -963341 6 7 100
414       475311 6 7 100
415       350306 9 10 0
416      -172840 9 10 0
417       361819 176 13 0
418      -352220 177 13 0
419      -361819 9 10 0
420       147224 9 10 0
421      -371462 178 13 0
422       362684 179 13 0
423       371462 9 10 0
424      -120847 9 10 0
425  1.16132e+06 180 18 0
426 -1.16132e+06 181 18 0
427 -1.04276e+06 6 7 100
428       258075 6 7 100
429       379185 9 10 0
430     -93845.5 9 10 0
431       384947 182 13 0
432      -377943 183 13 0
433      -384947 9 10 0
434      66358.7 9 10 0
435      -388720 184 13 0
436       382660 185 13 0
437       388720 9 10 0
438     -38528.9 9 10 0
439  1.16132e+06 186 18 0
440 -1.16132e+06 187 18 0
441 -1.07383e+06 6 7 100
442      28874.8 6 7 100
443       390484 9 10 0
444     -10499.9 9 10 0
445       390484 188 13 0
446      -386144 189 13 0
447      -390229 9 10 0
448     -17583.3 9 10 0
449      -390229 190 13 0
450      -384895 191 13 0
451       387957 9 10 0
452      45575.6 9 10 0
453  1.16132e+06 192 18 0
454  1.16132e+06 193 18 0
455 -1.05512e+06 6 7 100
456      -201664 6 7 100
457       383680 9 10 0
458      73332.4 9 10 0
459       383680 194 13 0
460       376443 195 13 0
461      -377419 9 10 0
462      -100710 9 10 0
463      -377419 196 13 0
464      -369285 197 13 0
465       369208 9 10 0
466       127567 9 10 0
467  1.16132e+06 198 18 0
468  1.16132e+06 199 18 0
469      -987492 6 7 100
470      -422854 6 7 100
471       359088 9 10 0
472       153765 9 10 0
473       359088 200 13 0
474       349290 201 13 0
475      -347112 9 10 0
476      -179168 9 10 0
477      -347112 202 13 0
478      -336556 203 13 0
479       333342 9 10 0
480       203645 9 10 0
481  1.16132e+06 204 18 0
482  1.16132e+06 205 18 0
483      -874083 6 7 100
484      -624439 6 7 100
485       317848 9 10 0
486       227069 9 10 0
487       317848 206 13 0
488       305943 207 13 0
489      -300712 9 10 0
490      -249319 9 10 0
491      -300712 208 13 0
492      -288223 209 13 0
493       282022 9 10 0
494       270281 9 10 0
495  1.16132e+06 210 18 0
496  1.16132e+06 211 18 0
497      -720151 6 7 100
498      -797075 6 7 100
499       261873 9 10 0
500       289845 9 10 0
501       295654 212 13 0
502       307912 213 13 0
503      -240371 9 10 0
504      -307912 9 10 0
505      -312738 214 13 0
506      -324387 215 13 0
507       217626 9 10 0
508       324387 9 10 0
509  1.16132e+06 216 18 0
510  1.16132e+06 217 18 0
511      -532832 6 7 100
512      -932757 6 7 100
513       193757 9 10 0
514       339185 9 10 0
515       341977 218 13 0
516       352229 219 13 0
517      -168886 9 10 0
518      -352229 9 10 0
519      -353980 220 13 0
520      -363453 221 13 0
521       143142 9 10 0
522       363453 9 10 0
523  1.16132e+06 222 18 0
524  1.16132e+06 223 18 0
525      -320810 6 7 100
526  -1.0252e+06 6 7 100
527       116658 9 10 0
528       372799 9 10 0
529       372445 224 13 0
530       380217 225 13 0
531     -89571.1 9 10 0
532      -380217 9 10 0
533      -378811 226 13 0
534      -385670 227 13 0
535      62021.2 9 10 0
536       385670 9 10 0
537  1.16132e+06 228 18 0
538  1.16132e+06 229 18 0
539     -93914.4 6 7 100
540 -1.07011e+06 6 7 100
541      34150.7 9 10 0
542       389129 9 10 0
543       385647 230 13 0
544       390577 231 13 0
545     -6103.64 9 10 0
546      -390577 9 10 0
547      -386080 232 13 0
548      -390577 233 13 0
549     -21974.9 9 10 0
550       390006 9 10 0
551 -1.16132e+06 234 18 0
552  1.16132e+06 235 18 0
553       137335 6 7 100
554  -1.0654e+06 6 7 100
555     -49939.9 9 10 0
556       387420 9 10 0
557      -380969 236 13 0
558       387420 237 13 0
559      77646.8 9 10 0
560      -382830 9 10 0
561       375451 238 13 0
562      -382830 239 13 0
563      -104952 9 10 0
564       376262 9 10 0
565 -1.16132e+06 240 18 0
566  1.16132e+06 241 18 0
567       362217 6 7 100
568 -1.01131e+06 6 7 100
569      -131715 9 10 0
570       367749 9 10 0
571      -358630 242 13 0
572       367749 243 13 0
573       157797 9 10 0
574      -357334 9 10 0
575       347414 244 13 0
576      -357334 245 13 0
577      -183064 9 10 0
578       345073 9 10 0
579 -1.16132e+06 246 18 0
580  1.16132e+06 247 18 0
581       570306 6 7 100
582      -910328 6 7 100
583      -207384 9 10 0
584       331028 9 10 0
585      -319663 248 13 0
586       331028 249 13 0
587       230632 9 10 0
588      -315272 9 10 0
589       303271 250 13 0
590      -315272 251 13 0
591      -252688 9 10 0
592       297887 9 10 0
593 -1.16132e+06 252 18 0
594  1.16132e+06 253 18 0
595       751956 6 7 100
596      -767143 6 7 100
597      -273438 9 10 0
598       278961 9 10 0
599      -292775 254 13 0
600       280052 255 13 0
601       292775 9 10 0
602      -258594 9 10 0
603       310598 256 13 0
604      -298431 257 13 0
605      -310598 9 10 0
606       236890 9 10 0
607 -1.16132e+06 258 18 0
608  1.16132e+06 259 18 0
609       898743 6 7 100
610      -588393 6 7 100
611      -326816 9 10 0
612       213961 9 10 0
613      -341344 260 13 0
614       330475 261 13 0
615       341344 9 10 0
616      -189927 9 10 0
617       354108 262 13 0
618      -343974 263 13 0
619      -354108 9 10 0
620       164910 9 10 0
621 -1.16132e+06 264 18 0
622  1.16132e+06 265 18 0
623  1.00386e+06 6 7 100
624      -382364 6 7 100
625      -365042 9 10 0
626       139042 9 10 0
627      -374088 266 13 0
628       365577 267 13 0
629       374088 9 10 0
630      -112454 9 10 0
631       381201 268 13 0
632      -373570 269 13 0
633      -381201 9 10 0
634      85285.4 9 10 0
635 -1.16132e+06 270 18 0
636  1.16132e+06 271 18 0
637  1.06244e+06 6 7 100
638      -158608 6 7 100
639      -386344 9 10 0
640      57675.8 9 10 0
641      -389489 272 13 0
642       383731 273 13 0
643       389489 9 10 0
644     -29768.1 9 10 0
645       390621 274 13 0
646      -385846 275 13 0
647      -390621 9 10 0
648      1706.58 9 10 0
649 -1.16132e+06 276 18 0
650  1.16132e+06 277 18 0
651  1.07177e+06 6 7 100
652      72500.5 6 7 100
653      -389734 9 10 0
654     -26363.8 9 10 0
655      -389734 278 13 0
656      -384094 279 13 0
657       386833 9 10 0
658      54297.9 9 10 0
659       386833 280 13 0
660       380235 281 13 0
661      -381932 9 10 0
662     -81951.3 9 10 0
663 -1.16132e+06 282 18 0
664 -1.16132e+06 283 18 0
665  1.03141e+06 6 7 100
666       300248 6 7 100
667      -375056 9 10 0
668      -109181 9 10 0
669      -375056 284 13 0
670      -366650 285 13 0
671       366243 9 10 0
672       135847 9 10 0
673       366243 286 13 0
674       356995 287 13 0
675      -355535 9 10 0
676      -161810 9 10 0
677 -1.16132e+06 288 18 0
678 -1.16132e+06 289 18 0
679       943224 6 7 100
680       514076 6 7 100
681      -342991 9 10 0
682      -186937 9 10 0
683      -342991 290 13 0
684      -332208 291 13 0
685       328673 9 10 0
686       211097 9 10 0
687       328673 292 13 0
688       317204 293 13 0
689      -312656 9 10 0
690      -234167 9 10 0
691 -1.16132e+06 294 18 0
692 -1.16132e+06 295 18 0
693       811314 6 7 100
694       704071 6 7 100
695      -295023 9 10 0
696      -256026 9 10 0
697      -295023 296 13 0
698      -282364 297 13 0
699       275865 9 10 0
700       276561 9 10 0
701       283027 298 13 0
702       295667 299 13 0
703      -255282 9 10 0
704      -295667 9 10 0
705 -1.16132e+06 300 18 0
706 -1.16132e+06 301 18 0
707       641790 6 7 100
708       861424 6 7 100
709      -233378 9 10 0
710      -313245 9 10 0
711      -317758 302 13 0
712      -329204 303 13 0
713       210269 9 10 0
714       329204 9 10 0
715       332703 304 13 0
716       343460 305 13 0
717      -186072 9 10 0
718      -343460 9 10 0
719 -1.16132e+06 306 18 0
720 -1.16132e+06 307 18 0
721       442512 6 7 100
722       978840 6 7 100
723      -160914 9 10 0
724      -355942 9 10 0
725      -357365 308 13 0
726      -366584 309 13 0
727       134923 9 10 0
728       366584 9 10 0
729       366954 310 13 0
730       375330 311 13 0
731      -108236 9 10 0
732      -375330 9 10 0
733 -1.16132e+06 312 18 0
734 -1.16132e+06 313 18 0
735       222719 6 7 100
736  1.05088e+06 6 7 100
737     -80988.8 9 10 0
738      -382137 9 10 0
739      -380403 314 13 0
740      -386968 315 13 0
741      53323.1 9 10 0
742       386968 9 10 0
743       384193 316 13 0
744       389800 317 13 0
745     -25381.8 9 10 0
746      -389800 9 10 0
747 -1.16132e+06 318 18 0
748 -1.16132e+06 319 18 0
749     -7399.45 6 7 100
750  1.07419e+06 6 7 100
751      2690.71 9 10 0
752      -390616 9 10 0
753       385806 320 13 0
754      -390616 321 13 0
755     -30749.3 9 10 0
756       389413 9 10 0
757      -383620 322 13 0
758       389413 323 13 0
759        58649 9 10 0
760      -386197 9 10 0
761  1.16132e+06 324 18 0
762 -1.16132e+06 325 18 0
763      -237175 6 7 100
764  1.04771e+06 6 7 100
765      86245.5 9 10 0
766      -380985 9 10 0
767       373322 326 13 0
768      -380985 327 13 0
769      -113396 9 10 0
770       373804 9 10 0
771      -365263 328 13 0
772       373804 329 13 0
773       139961 9 10 0
774      -364690 9 10 0
775  1.16132e+06 330 18 0
776 -1.16132e+06 331 18 0
777      -455955 6 7 100
778       972651 6 7 100
779       165802 9 10 0
780      -353691 9 10 0
781       343531 332 13 0
782      -353691 333 13 0
783      -190786 9 10 0
784       340865 9 10 0
785      -329971 334 13 0
786       340865 335 13 0
787       214784 9 10 0
788      -326276 9 10 0
789  1.16132e+06 336 18 0
790 -1.16132e+06 337 18 0
791      -653596 6 7 100
792       852501 6 7 100
793       237671 9 10 0
794      -310000 9 10 0
795       297813 338 13 0
796      -310000 339 13 0
797      -259331 9 10 0
798       292123 9 10 0
799      -279649 340 13 0
800       292123 341 13 0
801       279649 9 10 0
802      -272735 9 10 0
803  1.16132e+06 342 18 0
804 -1.16132e+06 343 18 0
805      -820936 6 7 100
806       692827 6 7 100
