# Pulseq sequence file
# Created by PyPulseq

[VERSION]
major 1
minor 4
revision 2

[DEFINITIONS]
AdcRasterTime 1e-07 
BlockDurationRaster 1e-05 
FOV 0.256 0.256 0.016 
GradientRasterTime 1e-05 
Name QRAGE 
RES 256 256 16 
RadiofrequencyRasterTime 1e-06 
TotalDuration 77.46048 

# Format of blocks:
# NUM DUR RF  GX  GY  GZ  ADC  EXT
[BLOCKS]
    1 1036   1   0   0   0  0  0
    2 500   0   1   1   1  0  0
    3   0   0   0   0   0  0  0
    4 220   2   0   0   2  0  0
    5  90   0   3   4   5  0  3
    6 265   0   6   7   0  1  4
    7  30   0   8   9   0  0  0
    8 265   0  10  11   0  1  5
    9  30   0  12  13   0  0  0
   10 265   0  14  15   0  1  6
   11  30   0  16  17   0  0  0
   12 265   0  18  19   0  1  7
   13  30   0  20  21   0  0  0
   14 265   0  22  23   0  1  8
   15  30   0  24  25   0  0  0
   16 265   0  26  27   0  1  9
   17  30   0  28  29   0  0  0
   18 265   0  30  31   0  1 10
   19  30   0  32  33   0  0  0
   20 265   0  34  35   0  1 11
   21  30   0  36  37   0  0  0
   22 265   0  38  39   0  1 12
   23 245   0  40  41  42  0  0
   24 220   3   0   0   2  0  0
   25  90   0   3   4  43  0 14
   26 265   0   6   7   0  2  4
   27  30   0   8   9   0  0  0
   28 265   0  10  11   0  2  5
   29  30   0  12  13   0  0  0
   30 265   0  14  15   0  2  6
   31  30   0  16  17   0  0  0
   32 265   0  18  19   0  2  7
   33  30   0  20  21   0  0  0
   34 265   0  22  23   0  2  8
   35  30   0  24  25   0  0  0
   36 265   0  26  27   0  2  9
   37  30   0  28  29   0  0  0
   38 265   0  30  31   0  2 10
   39  30   0  32  33   0  0  0
   40 265   0  34  35   0  2 11
   41  30   0  36  37   0  0  0
   42 265   0  38  39   0  2 12
   43 245   0  40  41  44  0  0
   44 220   4   0   0   2  0  0
   45  90   0   3   4  45  0 15
   46 265   0   6   7   0  3  4
   47  30   0   8   9   0  0  0
   48 265   0  10  11   0  3  5
   49  30   0  12  13   0  0  0
   50 265   0  14  15   0  3  6
   51  30   0  16  17   0  0  0
   52 265   0  18  19   0  3  7
   53  30   0  20  21   0  0  0
   54 265   0  22  23   0  3  8
   55  30   0  24  25   0  0  0
   56 265   0  26  27   0  3  9
   57  30   0  28  29   0  0  0
   58 265   0  30  31   0  3 10
   59  30   0  32  33   0  0  0
   60 265   0  34  35   0  3 11
   61  30   0  36  37   0  0  0
   62 265   0  38  39   0  3 12
   63 245   0  40  41  46  0  0
   64 220   5   0   0   2  0  0
   65  90   0   3   4  47  0 16
   66 265   0   6   7   0  4  4
   67  30   0   8   9   0  0  0
   68 265   0  10  11   0  4  5
   69  30   0  12  13   0  0  0
   70 265   0  14  15   0  4  6
   71  30   0  16  17   0  0  0
   72 265   0  18  19   0  4  7
   73  30   0  20  21   0  0  0
   74 265   0  22  23   0  4  8
   75  30   0  24  25   0  0  0
   76 265   0  26  27   0  4  9
   77  30   0  28  29   0  0  0
   78 265   0  30  31   0  4 10
   79  30   0  32  33   0  0  0
   80 265   0  34  35   0  4 11
   81  30   0  36  37   0  0  0
   82 265   0  38  39   0  4 12
   83 245   0  40  41  48  0  0
   84 220   6   0   0   2  0  0
   85  90   0   3   4  49  0 17
   86 265   0   6   7   0  5  4
   87  30   0   8   9   0  0  0
   88 265   0  10  11   0  5  5
   89  30   0  12  13   0  0  0
   90 265   0  14  15   0  5  6
   91  30   0  16  17   0  0  0
   92 265   0  18  19   0  5  7
   93  30   0  20  21   0  0  0
   94 265   0  22  23   0  5  8
   95  30   0  24  25   0  0  0
   96 265   0  26  27   0  5  9
   97  30   0  28  29   0  0  0
   98 265   0  30  31   0  5 10
   99  30   0  32  33   0  0  0
  100 265   0  34  35   0  5 11
  101  30   0  36  37   0  0  0
  102 265   0  38  39   0  5 12
  103 245   0  40  41  50  0  0
  104 220   7   0   0   2  0  0
  105  90   0   3   4  51  0 18
  106 265   0   6   7   0  6  4
  107  30   0   8   9   0  0  0
  108 265   0  10  11   0  6  5
  109  30   0  12  13   0  0  0
  110 265   0  14  15   0  6  6
  111  30   0  16  17   0  0  0
  112 265   0  18  19   0  6  7
  113  30   0  20  21   0  0  0
  114 265   0  22  23   0  6  8
  115  30   0  24  25   0  0  0
  116 265   0  26  27   0  6  9
  117  30   0  28  29   0  0  0
  118 265   0  30  31   0  6 10
  119  30   0  32  33   0  0  0
  120 265   0  34  35   0  6 11
  121  30   0  36  37   0  0  0
  122 265   0  38  39   0  6 12
  123 245   0  40  41  52  0  0
  124 220   8   0   0   2  0  0
  125  90   0   3   4  53  0 19
  126 265   0   6   7   0  7  4
  127  30   0   8   9   0  0  0
  128 265   0  10  11   0  7  5
  129  30   0  12  13   0  0  0
  130 265   0  14  15   0  7  6
  131  30   0  16  17   0  0  0
  132 265   0  18  19   0  7  7
  133  30   0  20  21   0  0  0
  134 265   0  22  23   0  7  8
  135  30   0  24  25   0  0  0
  136 265   0  26  27   0  7  9
  137  30   0  28  29   0  0  0
  138 265   0  30  31   0  7 10
  139  30   0  32  33   0  0  0
  140 265   0  34  35   0  7 11
  141  30   0  36  37   0  0  0
  142 265   0  38  39   0  7 12
  143 245   0  40  41  54  0  0
  144 220   9   0   0   2  0  0
  145  90   0   3   4  55  0 20
  146 265   0   6   7   0  8  4
  147  30   0   8   9   0  0  0
  148 265   0  10  11   0  8  5
  149  30   0  12  13   0  0  0
  150 265   0  14  15   0  8  6
  151  30   0  16  17   0  0  0
  152 265   0  18  19   0  8  7
  153  30   0  20  21   0  0  0
  154 265   0  22  23   0  8  8
  155  30   0  24  25   0  0  0
  156 265   0  26  27   0  8  9
  157  30   0  28  29   0  0  0
  158 265   0  30  31   0  8 10
  159  30   0  32  33   0  0  0
  160 265   0  34  35   0  8 11
  161  30   0  36  37   0  0  0
  162 265   0  38  39   0  8 12
  163 245   0  40  41  56  0  0
  164 220   2   0   0   2  0  0
  165  90   0   3   4  57  0 21
  166 265   0   6   7   0  1  4
  167  30   0   8   9   0  0  0
  168 265   0  10  11   0  1  5
  169  30   0  12  13   0  0  0
  170 265   0  14  15   0  1  6
  171  30   0  16  17   0  0  0
  172 265   0  18  19   0  1  7
  173  30   0  20  21   0  0  0
  174 265   0  22  23   0  1  8
  175  30   0  24  25   0  0  0
  176 265   0  26  27   0  1  9
  177  30   0  28  29   0  0  0
  178 265   0  30  31   0  1 10
  179  30   0  32  33   0  0  0
  180 265   0  34  35   0  1 11
  181  30   0  36  37   0  0  0
  182 265   0  38  39   0  1 12
  183 245   0  40  41  58  0  0
  184 220  10   0   0   2  0  0
  185  90   0   3   4  59  0 22
  186 265   0   6   7   0  9  4
  187  30   0   8   9   0  0  0
  188 265   0  10  11   0  9  5
  189  30   0  12  13   0  0  0
  190 265   0  14  15   0  9  6
  191  30   0  16  17   0  0  0
  192 265   0  18  19   0  9  7
  193  30   0  20  21   0  0  0
  194 265   0  22  23   0  9  8
  195  30   0  24  25   0  0  0
  196 265   0  26  27   0  9  9
  197  30   0  28  29   0  0  0
  198 265   0  30  31   0  9 10
  199  30   0  32  33   0  0  0
  200 265   0  34  35   0  9 11
  201  30   0  36  37   0  0  0
  202 265   0  38  39   0  9 12
  203 245   0  40  41  60  0  0
  204 220  11   0   0   2  0  0
  205  90   0   3   4  61  0 23
  206 265   0   6   7   0 10  4
  207  30   0   8   9   0  0  0
  208 265   0  10  11   0 10  5
  209  30   0  12  13   0  0  0
  210 265   0  14  15   0 10  6
  211  30   0  16  17   0  0  0
  212 265   0  18  19   0 10  7
  213  30   0  20  21   0  0  0
  214 265   0  22  23   0 10  8
  215  30   0  24  25   0  0  0
  216 265   0  26  27   0 10  9
  217  30   0  28  29   0  0  0
  218 265   0  30  31   0 10 10
  219  30   0  32  33   0  0  0
  220 265   0  34  35   0 10 11
  221  30   0  36  37   0  0  0
  222 265   0  38  39   0 10 12
  223 245   0  40  41  62  0  0
  224 220  12   0   0   2  0  0
  225  90   0   3   4  63  0 24
  226 265   0   6   7   0 11  4
  227  30   0   8   9   0  0  0
  228 265   0  10  11   0 11  5
  229  30   0  12  13   0  0  0
  230 265   0  14  15   0 11  6
  231  30   0  16  17   0  0  0
  232 265   0  18  19   0 11  7
  233  30   0  20  21   0  0  0
  234 265   0  22  23   0 11  8
  235  30   0  24  25   0  0  0
  236 265   0  26  27   0 11  9
  237  30   0  28  29   0  0  0
  238 265   0  30  31   0 11 10
  239  30   0  32  33   0  0  0
  240 265   0  34  35   0 11 11
  241  30   0  36  37   0  0  0
  242 265   0  38  39   0 11 12
  243 245   0  40  41  64  0  0
  244 220   5   0   0   2  0  0
  245  90   0   3   4  65  0 25
  246 265   0   6   7   0  4  4
  247  30   0   8   9   0  0  0
  248 265   0  10  11   0  4  5
  249  30   0  12  13   0  0  0
  250 265   0  14  15   0  4  6
  251  30   0  16  17   0  0  0
  252 265   0  18  19   0  4  7
  253  30   0  20  21   0  0  0
  254 265   0  22  23   0  4  8
  255  30   0  24  25   0  0  0
  256 265   0  26  27   0  4  9
  257  30   0  28  29   0  0  0
  258 265   0  30  31   0  4 10
  259  30   0  32  33   0  0  0
  260 265   0  34  35   0  4 11
  261  30   0  36  37   0  0  0
  262 265   0  38  39   0  4 12
  263 245   0  40  41  66  0  0
  264 220  11   0   0   2  0  0
  265  90   0   3   4  67  0 26
  266 265   0   6   7   0 10  4
  267  30   0   8   9   0  0  0
  268 265   0  10  11   0 10  5
  269  30   0  12  13   0  0  0
  270 265   0  14  15   0 10  6
  271  30   0  16  17   0  0  0
  272 265   0  18  19   0 10  7
  273  30   0  20  21   0  0  0
  274 265   0  22  23   0 10  8
  275  30   0  24  25   0  0  0
  276 265   0  26  27   0 10  9
  277  30   0  28  29   0  0  0
  278 265   0  30  31   0 10 10
  279  30   0  32  33   0  0  0
  280 265   0  34  35   0 10 11
  281  30   0  36  37   0  0  0
  282 265   0  38  39   0 10 12
  283 245   0  40  41  68  0  0
  284 220  13   0   0   2  0  0
  285  90   0   3   4  69  0 27
  286 265   0   6   7   0 12  4
  287  30   0   8   9   0  0  0
  288 265   0  10  11   0 12  5
  289  30   0  12  13   0  0  0
  290 265   0  14  15   0 12  6
  291  30   0  16  17   0  0  0
  292 265   0  18  19   0 12  7
  293  30   0  20  21   0  0  0
  294 265   0  22  23   0 12  8
  295  30   0  24  25   0  0  0
  296 265   0  26  27   0 12  9
  297  30   0  28  29   0  0  0
  298 265   0  30  31   0 12 10
  299  30   0  32  33   0  0  0
  300 265   0  34  35   0 12 11
  301  30   0  36  37   0  0  0
[RF]
1      812.331 1 2 3 100 0 0
2      69.4997 4 5 0 150 0 0
3      69.4997 4 5 0 150 0 0.872665
4      69.4997 4 5 0 150 0 2.61799
5      69.4997 4 5 0 150 0 5.23599
6      69.4997 4 5 0 150 0 2.44346
7      69.4997 4 5 0 150 0 0.523599
8      69.4997 4 5 0 150 0 5.75959
9      69.4997 4 5 0 150 0 5.58505
10      69.4997 4 5 0 150 0 1.5708
11      69.4997 4 5 0 150 0 4.01426
12      69.4997 4 5 0 150 0 1.0472
13      69.4997 4 5 0 150 0 3.66519
14      69.4997 4 5 0 150 0 4.18879
15      69.4997 4 5 0 150 0 4.71239
16      69.4997 4 5 0 150 0 2.0944
17      69.4997 4 5 0 150 0 3.14159

# Format of arbitrary gradients:
#   time_shape_id of 0 means default timing (stepping with grad_raster starting at 1/2 of grad_raster)
# id amplitude amp_shape_id time_shape_id delay
# ..      Hz/m       ..         ..          us
[GRADIENTS]
3 -1.07422e+06 6 7 100
4            0 8 7 100
6       390625 9 10 0
7            0 11 10 0
8       390625 12 13 0
9       121969 14 13 0
10      -390600 9 10 0
11     -4435.24 9 10 0
12      -390600 15 13 0
13      -121953 16 13 0
14       390524 9 10 0
15       8869.9 9 10 0
16       390524 17 13 0
17       121922 18 13 0
18      -390398 9 10 0
19     -13303.4 9 10 0
20      -390398 19 13 0
21      -121875 20 13 0
22       390222 9 10 0
23      17735.2 9 10 0
24       390222 21 13 0
25       121812 22 13 0
26      -389996 9 10 0
27     -22164.8 9 10 0
28      -389996 23 13 0
29      -121733 24 13 0
30       389719 9 10 0
31      26591.4 9 10 0
32       389719 25 13 0
33       121639 26 13 0
34      -389392 9 10 0
35     -31014.6 9 10 0
36      -389392 27 13 0
37      -121529 28 13 0
38       389015 9 10 0
39      35433.9 9 10 0
40  1.16132e+06 29 30 0
41  1.16132e+06 31 30 0
73 -1.06861e+06 6 7 100
74      -109584 6 7 100
75       388587 9 10 0
76      39848.6 9 10 0
77       388587 32 13 0
78       121262 33 13 0
79      -388110 9 10 0
80     -44258.1 9 10 0
81      -388110 34 13 0
82      -121105 35 13 0
83       387582 9 10 0
84      48661.9 9 10 0
85       387582 36 13 0
86       120933 37 13 0
87      -387005 9 10 0
88     -53059.5 9 10 0
89      -387005 38 13 0
90      -120745 39 13 0
91       386377 9 10 0
92      57450.2 9 10 0
93       386377 40 13 0
94       120541 41 13 0
95      -385700 9 10 0
96     -61833.5 9 10 0
97      -385700 42 13 0
98      -120322 43 13 0
99       384973 9 10 0
100      66208.8 9 10 0
101       384973 44 13 0
102       120087 45 13 0
103      -384197 9 10 0
104     -70575.6 9 10 0
105      -384197 46 13 0
106      -119837 47 13 0
107       383370 9 10 0
108      74933.3 9 10 0
109  1.16132e+06 48 30 0
110  1.16132e+06 49 30 0
111 -1.05186e+06 6 7 100
112      -218024 6 7 100
113       382495 9 10 0
114      79281.3 9 10 0
115       382495 50 13 0
116       119290 51 13 0
117      -381570 9 10 0
118     -83619.1 9 10 0
119      -381570 52 13 0
120      -118993 53 13 0
121       380596 9 10 0
122      87946.2 9 10 0
123       380596 54 13 0
124       118682 55 13 0
125      -379573 9 10 0
126     -92261.9 9 10 0
127      -379573 56 13 0
128      -118355 57 13 0
129       378501 9 10 0
130      96565.7 9 10 0
131       378501 58 13 0
132       118012 59 13 0
133      -377380 9 10 0
134      -100857 9 10 0
135      -377380 60 13 0
136      -117655 61 13 0
137       376211 9 10 0
138       105135 9 10 0
139       376211 62 13 0
140       117282 63 13 0
141      -374993 9 10 0
142      -109400 9 10 0
143      -374993 64 13 0
144      -116894 65 13 0
145       373726 9 10 0
146       113651 9 10 0
147  1.16132e+06 66 30 0
148  1.16132e+06 67 30 0
149 -1.02413e+06 6 7 100
150      -324189 6 7 100
151       372412 9 10 0
152       117887 9 10 0
153       372412 68 13 0
154       122108 69 13 0
155      -371049 9 10 0
156      -122108 9 10 0
157      -371049 70 13 0
158      -126313 71 13 0
159       369639 9 10 0
160       126313 9 10 0
161       369639 72 13 0
162       130502 73 13 0
163      -368181 9 10 0
164      -130502 9 10 0
165      -368181 74 13 0
166      -134674 75 13 0
167       366675 9 10 0
168       134674 9 10 0
169       366675 76 13 0
170       138828 77 13 0
171      -365123 9 10 0
172      -138828 9 10 0
173      -365123 78 13 0
174      -142965 79 13 0
175       363523 9 10 0
176       142965 9 10 0
177       363523 80 13 0
178       147083 81 13 0
179      -361876 9 10 0
180      -147083 9 10 0
181      -361876 82 13 0
182      -151183 83 13 0
183       360183 9 10 0
184       151183 9 10 0
185  1.16132e+06 84 30 0
186  1.16132e+06 85 30 0
187      -985718 6 7 100
188      -426972 6 7 100
189       358443 9 10 0
190       155262 9 10 0
191       358443 86 13 0
192       159322 87 13 0
193      -356657 9 10 0
194      -159322 9 10 0
195      -356657 88 13 0
196      -163362 89 13 0
197       354825 9 10 0
198       163362 9 10 0
199       354825 90 13 0
200       167380 91 13 0
201      -352947 9 10 0
202      -167380 9 10 0
203      -352947 92 13 0
204      -171376 93 13 0
205       351024 9 10 0
206       171376 9 10 0
207       351024 94 13 0
208       175351 95 13 0
209      -349056 9 10 0
210      -175351 9 10 0
211      -349056 96 13 0
212      -179303 97 13 0
213       347042 9 10 0
214       179303 9 10 0
215       347042 98 13 0
216       183232 99 13 0
217      -344984 9 10 0
218      -183232 9 10 0
219      -344984 100 13 0
220      -187137 101 13 0
221       342881 9 10 0
222       187137 9 10 0
223  1.16132e+06 102 30 0
224  1.16132e+06 103 30 0
225      -937020 6 7 100
226      -525300 6 7 100
227       340734 9 10 0
228       191018 9 10 0
229       340734 104 13 0
230       194875 105 13 0
231      -338544 9 10 0
232      -194875 9 10 0
233      -338544 106 13 0
234      -198706 107 13 0
235       336309 9 10 0
236       198706 9 10 0
237       336309 108 13 0
238       202512 109 13 0
239      -334031 9 10 0
240      -202512 9 10 0
241      -334031 110 13 0
242      -206291 111 13 0
243       331710 9 10 0
244       206291 9 10 0
245       331710 112 13 0
246       210044 113 13 0
247      -329347 9 10 0
248      -210044 9 10 0
249      -329347 114 13 0
250      -213770 115 13 0
251       326941 9 10 0
252       213770 9 10 0
253       326941 116 13 0
254       217469 117 13 0
255      -324492 9 10 0
256      -217469 9 10 0
257      -324492 118 13 0
258      -221139 119 13 0
259       322002 9 10 0
260       221139 9 10 0
261  1.16132e+06 120 30 0
262  1.16132e+06 121 30 0
263      -878544 6 7 100
264      -618147 6 7 100
265       319471 9 10 0
266       224781 9 10 0
267       319471 122 13 0
268       228394 123 13 0
269      -316898 9 10 0
270      -228394 9 10 0
271      -316898 124 13 0
272      -231977 125 13 0
273       314284 9 10 0
274       231977 9 10 0
275       314284 126 13 0
276       235530 127 13 0
277      -311630 9 10 0
278      -235530 9 10 0
279      -311630 128 13 0
280      -239054 129 13 0
281       308936 9 10 0
282       239054 9 10 0
283       308936 130 13 0
284       242546 131 13 0
285      -306202 9 10 0
286      -242546 9 10 0
287      -306202 132 13 0
288      -246007 133 13 0
289       303428 9 10 0
290       246007 9 10 0
291       303428 134 13 0
292       249436 135 13 0
293      -300615 9 10 0
294      -249436 9 10 0
295      -300615 136 13 0
296      -252833 137 13 0
297       297764 9 10 0
298       252833 9 10 0
299  1.16132e+06 138 30 0
300  1.16132e+06 139 30 0
301      -810903 6 7 100
302      -704544 6 7 100
303       294874 9 10 0
304       256198 9 10 0
305       294874 140 13 0
306       259530 141 13 0
307      -291946 9 10 0
308      -259530 9 10 0
309      -291946 142 13 0
310      -262828 143 13 0
311       288980 9 10 0
312       262828 9 10 0
313       288980 144 13 0
314       266092 145 13 0
315      -285977 9 10 0
316      -266092 9 10 0
317      -285977 146 13 0
318      -269322 147 13 0
319       282938 9 10 0
320       269322 9 10 0
321       282938 148 13 0
322       272517 149 13 0
323      -279861 9 10 0
324      -272517 9 10 0
325      -279861 150 13 0
326      -275677 151 13 0
327       276749 9 10 0
328       275677 9 10 0
329       276749 152 13 0
330       278801 153 13 0
331      -273601 9 10 0
332      -278801 9 10 0
333      -273601 154 13 0
334      -281890 155 13 0
335       270418 9 10 0
336       281890 9 10 0
337  1.16132e+06 156 30 0
338  1.16132e+06 157 30 0
339      -734800 6 7 100
340      -783591 6 7 100
341       267200 9 10 0
342       284942 9 10 0
343       267200 158 13 0
344       287958 159 13 0
345      -263947 9 10 0
346      -287958 9 10 0
347      -263947 160 13 0
348      -290936 161 13 0
349       260661 9 10 0
350       290936 9 10 0
351       260661 162 13 0
352       293877 163 13 0
353      -257341 9 10 0
354      -293877 9 10 0
355      -257341 164 13 0
356      -296780 165 13 0
357       253987 9 10 0
358       296780 9 10 0
359       253987 166 13 0
360       299645 167 13 0
361      -250601 9 10 0
362      -299645 9 10 0
363      -250601 168 13 0
364      -302471 169 13 0
365       247183 9 10 0
366       302471 9 10 0
367       247183 170 13 0
368       305258 171 13 0
369      -243733 9 10 0
370      -305258 9 10 0
371      -243733 172 13 0
372      -308005 173 13 0
373       240251 9 10 0
374       308005 9 10 0
375  1.16132e+06 174 30 0
376  1.16132e+06 175 30 0
377      -651031 6 7 100
378      -854462 6 7 100
379       236738 9 10 0
380       310713 9 10 0
381       236738 176 13 0
382       313381 177 13 0
383      -233195 9 10 0
384      -313381 9 10 0
385      -233195 178 13 0
386      -316009 179 13 0
387       229622 9 10 0
388       316009 9 10 0
389       229622 180 13 0
390       318596 181 13 0
391      -226019 9 10 0
392      -318596 9 10 0
393      -226019 182 13 0
394      -321141 183 13 0
395       222387 9 10 0
396       321141 9 10 0
397       222387 184 13 0
398       323646 185 13 0
399      -218727 9 10 0
400      -323646 9 10 0
401      -218727 186 13 0
402      -326108 187 13 0
403       215038 9 10 0
404       326108 9 10 0
405       215038 188 13 0
406       328529 189 13 0
407      -211321 9 10 0
408      -328529 9 10 0
409      -211321 190 13 0
410      -330907 191 13 0
411       207577 9 10 0
412       330907 9 10 0
413  1.16132e+06 192 30 0
414  1.16132e+06 193 30 0
415      -560469 6 7 100
416      -916417 6 7 100
417       203807 9 10 0
418       333243 9 10 0
419       203807 194 13 0
420       335535 195 13 0
421      -200010 9 10 0
422      -335535 9 10 0
423      -200010 196 13 0
424      -337785 197 13 0
425       196187 9 10 0
426       337785 9 10 0
427       196187 198 13 0
428       339990 199 13 0
429      -192339 9 10 0
430      -339990 9 10 0
431      -192339 200 13 0
432      -342152 201 13 0
433       188467 9 10 0
434       342152 9 10 0
435       188467 202 13 0
436       344270 203 13 0
437      -184570 9 10 0
438      -344270 9 10 0
439      -184570 204 13 0
440      -346344 205 13 0
441       180649 9 10 0
442       346344 9 10 0
443       180649 206 13 0
444       348372 207 13 0
445      -176705 9 10 0
446      -348372 9 10 0
447      -176705 208 13 0
448      -350356 209 13 0
449       172738 9 10 0
450       350356 9 10 0
451  1.16132e+06 210 30 0
452  1.16132e+06 211 30 0
453      -464059 6 7 100
454      -968811 6 7 100
455       168749 9 10 0
456       352295 9 10 0
457       168749 212 13 0
458       354188 213 13 0
459      -164738 9 10 0
460      -354188 9 10 0
461      -164738 214 13 0
462      -356036 215 13 0
463       160706 9 10 0
464       356036 9 10 0
465       160706 216 13 0
466       357838 217 13 0
467      -156653 9 10 0
468      -357838 9 10 0
469      -156653 218 13 0
470      -359593 219 13 0
471       152580 9 10 0
472       359593 9 10 0
473       152580 220 13 0
474       361302 221 13 0
475      -148487 9 10 0
476      -361302 9 10 0
477      -148487 222 13 0
478      -362965 223 13 0
479       144375 9 10 0
480       362965 9 10 0
481       144375 224 13 0
482       364581 225 13 0
483      -140245 9 10 0
484      -364581 9 10 0
485      -140245 226 13 0
486      -366150 227 13 0
487       136096 9 10 0
488       366150 9 10 0
489  1.16132e+06 228 30 0
490  1.16132e+06 229 30 0
491      -362808 6 7 100
492  -1.0111e+06 6 7 100
493       131930 9 10 0
494       367672 9 10 0
495       131930 230 13 0
496       369146 231 13 0
497      -127747 9 10 0
498      -369146 9 10 0
499      -127747 232 13 0
500      -370572 233 13 0
501       123547 9 10 0
502       370572 9 10 0
503       123547 234 13 0
504       371951 235 13 0
505      -119332 9 10 0
506      -371951 9 10 0
507      -119332 236 13 0
508      -373282 237 13 0
509       115101 9 10 0
510       373282 9 10 0
511       116758 238 13 0
512       374565 239 13 0
513      -110855 9 10 0
514      -374565 9 10 0
515      -117151 240 13 0
516      -375800 241 13 0
517       106595 9 10 0
518       375800 9 10 0
519       117529 242 13 0
520       376986 243 13 0
521      -102321 9 10 0
522      -376986 9 10 0
523      -117892 244 13 0
524      -378123 245 13 0
525      98034.4 9 10 0
526       378123 9 10 0
527  1.16132e+06 246 30 0
528  1.16132e+06 247 30 0
529      -257771 6 7 100
530 -1.04283e+06 6 7 100
531      93734.7 9 10 0
532       379212 9 10 0
533       118572 248 13 0
534       380252 249 13 0
535       -89423 9 10 0
536      -380252 9 10 0
537      -118889 250 13 0
538      -381243 251 13 0
539      85099.8 9 10 0
540       381243 9 10 0
541       119190 252 13 0
542       382184 253 13 0
543     -80765.6 9 10 0
544      -382184 9 10 0
545      -119477 254 13 0
546      -383077 255 13 0
547        76421 9 10 0
548       383077 9 10 0
549       119748 256 13 0
550       383920 257 13 0
551     -72066.6 9 10 0
552      -383920 9 10 0
553      -120003 258 13 0
554      -384713 259 13 0
555      67702.8 9 10 0
556       384713 9 10 0
557       120243 260 13 0
558       385457 261 13 0
559     -63330.3 9 10 0
560      -385457 9 10 0
561      -120468 262 13 0
562      -386151 263 13 0
563      58949.7 9 10 0
564       386151 9 10 0
565  1.16132e+06 264 30 0
566  1.16132e+06 265 30 0
567      -150044 6 7 100
568 -1.06369e+06 6 7 100
569      54561.5 9 10 0
570       386796 9 10 0
571       120870 266 13 0
572       387390 267 13 0
573     -50166.2 9 10 0
574      -387390 9 10 0
575      -121048 268 13 0
576      -387935 269 13 0
577      45764.4 9 10 0
578       387935 9 10 0
579       121210 270 13 0
580       388430 271 13 0
581     -41356.8 9 10 0
582      -388430 9 10 0
583      -121357 272 13 0
584      -388874 273 13 0
585      36943.8 9 10 0
586       388874 9 10 0
587       121488 274 13 0
588       389268 275 13 0
589     -32526.1 9 10 0
590      -389268 9 10 0
591      -121603 276 13 0
592      -389613 277 13 0
593      28104.2 9 10 0
594       389613 9 10 0
595       121703 278 13 0
596       389907 279 13 0
597     -23678.6 9 10 0
598      -389907 9 10 0
599      -121787 280 13 0
600      -390150 281 13 0
601        19250 9 10 0
602       390150 9 10 0
603  1.16132e+06 282 30 0
604  1.16132e+06 283 30 0
605       -40752 6 7 100
606 -1.07345e+06 6 7 100
607      14818.9 9 10 0
608       390344 9 10 0
609       121907 284 13 0
610       390487 285 13 0
611     -10385.9 9 10 0
612      -390487 9 10 0
613      -121944 286 13 0
614      -390580 287 13 0
615      5951.57 9 10 0
616       390580 9 10 0
617       121965 288 13 0
618       390622 289 13 0
619     -1516.46 9 10 0
620      -390622 9 10 0
621      -121971 290 13 0
622      -390622 291 13 0
623     -2918.84 9 10 0
624       390614 9 10 0
625      -121960 292 13 0
626       390614 293 13 0
627      7353.76 9 10 0
628      -390556 9 10 0
629       121934 294 13 0
630      -390556 295 13 0
631     -11787.7 9 10 0
632       390447 9 10 0
633      -121893 296 13 0
634       390447 297 13 0
635      16220.2 9 10 0
636      -390288 9 10 0
637       121835 298 13 0
638      -390288 299 13 0
639     -20650.6 9 10 0
640       390079 9 10 0
641 -1.16132e+06 300 30 0
642  1.16132e+06 301 30 0
643      68965.2 6 7 100
644   -1.072e+06 6 7 100
645     -25078.3 9 10 0
646       389819 9 10 0
647      -121673 302 13 0
648       389819 303 13 0
649      29502.7 9 10 0
650      -389509 9 10 0
651       121568 304 13 0
652      -389509 305 13 0
653     -33923.4 9 10 0
654       389149 9 10 0
655      -121448 306 13 0
656       389149 307 13 0
657      38339.7 9 10 0
658      -388739 9 10 0
659       121312 308 13 0
660      -388739 309 13 0
661       -42751 9 10 0
662       388279 9 10 0
663      -121161 310 13 0
664       388279 311 13 0
665      47156.9 9 10 0
666      -387768 9 10 0
667       120993 312 13 0
668      -387768 313 13 0
669     -51556.6 9 10 0
670       387208 9 10 0
671      -120811 314 13 0
672       387208 315 13 0
673      55949.8 9 10 0
674      -386597 9 10 0
675       120612 316 13 0
676      -386597 317 13 0
677     -60335.7 9 10 0
678       385937 9 10 0
679 -1.16132e+06 318 30 0
680  1.16132e+06 319 30 0
681       177963 6 7 100
682 -1.05937e+06 6 7 100
683     -64713.8 9 10 0
684       385227 9 10 0
685      -120169 320 13 0
686       385227 321 13 0
687      69083.6 9 10 0
688      -384468 9 10 0
689       119924 322 13 0
690      -384468 323 13 0
691     -73444.4 9 10 0
692       383658 9 10 0
693      -119664 324 13 0
694       383658 325 13 0
695      77795.8 9 10 0
696      -382800 9 10 0
697       119388 326 13 0
698      -382800 327 13 0
699     -82137.2 9 10 0
700       381892 9 10 0
701      -119097 328 13 0
702       381892 329 13 0
703        86468 9 10 0
704      -380935 9 10 0
705       118790 330 13 0
706      -380935 331 13 0
707     -90787.6 9 10 0
708       379928 9 10 0
709      -118468 332 13 0
710       379928 333 13 0
711      95095.6 9 10 0
712      -378873 9 10 0
713       118131 334 13 0
714      -378873 335 13 0
715     -99391.2 9 10 0
716       377769 9 10 0
717 -1.16132e+06 336 30 0
718  1.16132e+06 337 30 0
719       285104 6 7 100
720 -1.03569e+06 6 7 100
721      -103674 9 10 0
722       376616 9 10 0
723      -117411 338 13 0
724       376616 339 13 0
725       107944 9 10 0
726      -375415 9 10 0
727       117028 340 13 0
728      -375415 341 13 0
729      -112199 9 10 0
730       374165 9 10 0
731      -116631 342 13 0
732       374165 343 13 0
733       116440 9 10 0
734      -372867 9 10 0
735       120666 344 13 0
736      -372867 345 13 0
737      -120666 9 10 0
738       371521 9 10 0
739      -124877 346 13 0
740       371521 347 13 0
741       124877 9 10 0
742      -370127 9 10 0
743       129071 348 13 0
744      -370127 349 13 0
745      -129071 9 10 0
746       368685 9 10 0
747      -133249 350 13 0
748       368685 351 13 0
749       133249 9 10 0
750      -367196 9 10 0
751       137410 352 13 0
752      -367196 353 13 0
753      -137410 9 10 0
754       365659 9 10 0
755 -1.16132e+06 354 30 0
756  1.16132e+06 355 30 0
757       389270 6 7 100
758 -1.00121e+06 6 7 100
759      -141553 9 10 0
760       364075 9 10 0
761      -145677 356 13 0
762       364075 357 13 0
763       145677 9 10 0
764      -362444 9 10 0
765       149783 358 13 0
766      -362444 359 13 0
767      -149783 9 10 0
768       360767 9 10 0
769      -153870 360 13 0
770       360767 361 13 0
771       153870 9 10 0
772      -359043 9 10 0
773       157937 362 13 0
774      -359043 363 13 0
775      -157937 9 10 0
776       357273 9 10 0
777      -161983 364 13 0
778       357273 365 13 0
779       161983 9 10 0
780      -355457 9 10 0
781       166008 366 13 0
782      -355457 367 13 0
783      -166008 9 10 0
784       353595 9 10 0
785      -170012 368 13 0
786       353595 369 13 0
787       170012 9 10 0
788      -351687 9 10 0
789       173995 370 13 0
790      -351687 371 13 0
791      -173995 9 10 0
792       349734 9 10 0
793 -1.16132e+06 372 30 0
794  1.16132e+06 373 30 0
795       489375 6 7 100
796      -956273 6 7 100
797      -177954 9 10 0
798       347736 9 10 0
799      -181891 374 13 0
800       347736 375 13 0
801       181891 9 10 0
802      -345693 9 10 0
803       185805 376 13 0
804      -345693 377 13 0
805      -185805 9 10 0
806       343605 9 10 0
