# Pulseq sequence file
# Created by PyPulseq

[VERSION]
major 1
minor 4
revision 2

[DEFINITIONS]
AdcRasterTime 1e-07 
BlockDurationRaster 1e-05 
FOV 0.2 0.2 0.016 
GradientRasterTime 1e-05 
Name QRAGE 
RES 128 128 8 
RadiofrequencyRasterTime 1e-06 
TotalDuration 60.88704 

# Format of blocks:
# NUM DUR RF  GX  GY  GZ  ADC  EXT
[BLOCKS]
    1 1036   1   0   0   0  0  0
    2 500   0   1   1   1  0  0
    3   0   0   0   0   0  0  0
    4 220   2   0   0   2  0  0
    5  70   0   3   4   5  0  3
    6 265   0   6   7   0  1  4
    7  30   0   8   9   0  0  0
    8 265   0  10  11   0  1  5
    9  30   0  12  13   0  0  0
   10 265   0  14  15   0  1  6
   11 155   0  16  17  18  0  0
   12 220   3   0   0   2  0  0
   13  70   0   3   4  19  0  8
   14 265   0   6   7   0  2  4
   15  30   0   8   9   0  0  0
   16 265   0  10  11   0  2  5
   17  30   0  12  13   0  0  0
   18 265   0  14  15   0  2  6
   19 155   0  16  17  20  0  0
   20 220   4   0   0   2  0  0
   21  70   0   3   4  21  0  9
   22 265   0   6   7   0  3  4
   23  30   0   8   9   0  0  0
   24 265   0  10  11   0  3  5
   25  30   0  12  13   0  0  0
   26 265   0  14  15   0  3  6
   27 155   0  16  17  22  0  0
   28 220   5   0   0   2  0  0
   29  70   0   3   4  23  0 10
   30 265   0   6   7   0  4  4
   31  30   0   8   9   0  0  0
   32 265   0  10  11   0  4  5
   33  30   0  12  13   0  0  0
   34 265   0  14  15   0  4  6
   35 155   0  16  17  24  0  0
   36 220   6   0   0   2  0  0
   37  70   0   3   4  25  0 11
   38 265   0   6   7   0  5  4
   39  30   0   8   9   0  0  0
   40 265   0  10  11   0  5  5
   41  30   0  12  13   0  0  0
   42 265   0  14  15   0  5  6
   43 155   0  16  17  26  0  0
   44 220   7   0   0   2  0  0
   45  70   0   3   4  27  0 12
   46 265   0   6   7   0  6  4
   47  30   0   8   9   0  0  0
   48 265   0  10  11   0  6  5
   49  30   0  12  13   0  0  0
   50 265   0  14  15   0  6  6
   51 155   0  16  17  28  0  0
   52 220   8   0   0   2  0  0
   53  70   0   3   4  29  0 13
   54 265   0   6   7   0  7  4
   55  30   0   8   9   0  0  0
   56 265   0  10  11   0  7  5
   57  30   0  12  13   0  0  0
   58 265   0  14  15   0  7  6
   59 155   0  16  17  30  0  0
   60 220   9   0   0   2  0  0
   61  70   0   3   4  31  0 14
   62 265   0   6   7   0  8  4
   63  30   0   8   9   0  0  0
   64 265   0  10  11   0  8  5
   65  30   0  12  13   0  0  0
   66 265   0  14  15   0  8  6
   67 155   0  16  17  32  0  0
   68   0   0   0   0   0  0  0
   69 220   2   0   0   2  0  0
   70  70   0  33  34   5  0 15
   71 265   0  35  36   0  1  4
   72  30   0  37  38   0  0  0
   73 265   0  39  40   0  1  5
   74  30   0  41  42   0  0  0
   75 265   0  43  44   0  1  6
   76 155   0  45  46  18  0  0
   77 220  10   0   0   2  0  0
   78  70   0  33  34  19  0 17
   79 265   0  35  36   0  9  4
   80  30   0  37  38   0  0  0
   81 265   0  39  40   0  9  5
   82  30   0  41  42   0  0  0
   83 265   0  43  44   0  9  6
   84 155   0  45  46  20  0  0
   85 220  11   0   0   2  0  0
   86  70   0  33  34  21  0 19
   87 265   0  35  36   0 10  4
   88  30   0  37  38   0  0  0
   89 265   0  39  40   0 10  5
   90  30   0  41  42   0  0  0
   91 265   0  43  44   0 10  6
   92 155   0  45  46  22  0  0
   93 220  12   0   0   2  0  0
   94  70   0  33  34  23  0 21
   95 265   0  35  36   0 11  4
   96  30   0  37  38   0  0  0
   97 265   0  39  40   0 11  5
   98  30   0  41  42   0  0  0
   99 265   0  43  44   0 11  6
  100 155   0  45  46  24  0  0
  101 220   5   0   0   2  0  0
  102  70   0  33  34  25  0 23
  103 265   0  35  36   0  4  4
  104  30   0  37  38   0  0  0
  105 265   0  39  40   0  4  5
  106  30   0  41  42   0  0  0
  107 265   0  43  44   0  4  6
  108 155   0  45  46  26  0  0
  109 220  11   0   0   2  0  0
  110  70   0  33  34  27  0 25
  111 265   0  35  36   0 10  4
  112  30   0  37  38   0  0  0
  113 265   0  39  40   0 10  5
  114  30   0  41  42   0  0  0
  115 265   0  43  44   0 10  6
  116 155   0  45  46  28  0  0
  117 220  13   0   0   2  0  0
  118  70   0  33  34  29  0 27
  119 265   0  35  36   0 12  4
  120  30   0  37  38   0  0  0
  121 265   0  39  40   0 12  5
  122  30   0  41  42   0  0  0
  123 265   0  43  44   0 12  6
  124 155   0  45  46  30  0  0
  125 220  14   0   0   2  0  0
  126  70   0  33  34  31  0 29
  127 265   0  35  36   0 13  4
  128  30   0  37  38   0  0  0
  129 265   0  39  40   0 13  5
  130  30   0  41  42   0  0  0
  131 265   0  43  44   0 13  6
  132 155   0  45  46  32  0  0
  133   0   0   0   0   0  0  0
  134 220   9   0   0   2  0  0
  135  70   0  47  48   5  0 30
  136 265   0  49  50   0  8  4
  137  30   0  51  52   0  0  0
  138 265   0  53  54   0  8  5
  139  30   0  55  56   0  0  0
  140 265   0  57  58   0  8  6
  141 155   0  59  60  18  0  0
  142 220  10   0   0   2  0  0
  143  70   0  47  48  19  0 31
  144 265   0  49  50   0  9  4
  145  30   0  51  52   0  0  0
  146 265   0  53  54   0  9  5
  147  30   0  55  56   0  0  0
  148 265   0  57  58   0  9  6
  149 155   0  59  60  20  0  0
  150 220  15   0   0   2  0  0
  151  70   0  47  48  21  0 32
  152 265   0  49  50   0 14  4
  153  30   0  51  52   0  0  0
  154 265   0  53  54   0 14  5
  155  30   0  55  56   0  0  0
  156 265   0  57  58   0 14  6
  157 155   0  59  60  22  0  0
  158 220   6   0   0   2  0  0
  159  70   0  47  48  23  0 33
  160 265   0  49  50   0  5  4
  161  30   0  51  52   0  0  0
  162 265   0  53  54   0  5  5
  163  30   0  55  56   0  0  0
  164 265   0  57  58   0  5  6
  165 155   0  59  60  24  0  0
  166 220  12   0   0   2  0  0
  167  70   0  47  48  25  0 34
  168 265   0  49  50   0 11  4
  169  30   0  51  52   0  0  0
  170 265   0  53  54   0 11  5
  171  30   0  55  56   0  0  0
  172 265   0  57  58   0 11  6
  173 155   0  59  60  26  0  0
  174 220   7   0   0   2  0  0
  175  70   0  47  48  27  0 35
  176 265   0  49  50   0  6  4
  177  30   0  51  52   0  0  0
  178 265   0  53  54   0  6  5
  179  30   0  55  56   0  0  0
  180 265   0  57  58   0  6  6
  181 155   0  59  60  28  0  0
  182 220   3   0   0   2  0  0
  183  70   0  47  48  29  0 36
  184 265   0  49  50   0  2  4
  185  30   0  51  52   0  0  0
  186 265   0  53  54   0  2  5
  187  30   0  55  56   0  0  0
  188 265   0  57  58   0  2  6
  189 155   0  59  60  30  0  0
  190 220  16   0   0   2  0  0
  191  70   0  47  48  31  0 37
  192 265   0  49  50   0 15  4
  193  30   0  51  52   0  0  0
  194 265   0  53  54   0 15  5
  195  30   0  55  56   0  0  0
  196 265   0  57  58   0 15  6
  197 155   0  59  60  32  0  0
  198   0   0   0   0   0  0  0
  199 220  14   0   0   2  0  0
  200  70   0  61  62   5  0 38
  201 265   0  63  64   0 13  4
  202  30   0  65  66   0  0  0
  203 265   0  67  68   0 13  5
  204  30   0  69  70   0  0  0
  205 265   0  71  72   0 13  6
  206 155   0  73  74  18  0  0
  207 220   3   0   0   2  0  0
  208  70   0  61  62  19  0 39
  209 265   0  63  64   0  2  4
  210  30   0  65  66   0  0  0
  211 265   0  67  68   0  2  5
  212  30   0  69  70   0  0  0
  213 265   0  71  72   0  2  6
  214 155   0  73  74  20  0  0
  215 220  15   0   0   2  0  0
  216  70   0  61  62  21  0 40
  217 265   0  63  64   0 14  4
  218  30   0  65  66   0  0  0
  219 265   0  67  68   0 14  5
  220  30   0  69  70   0  0  0
  221 265   0  71  72   0 14  6
  222 155   0  73  74  22  0  0
  223 220  17   0   0   2  0  0
  224  70   0  61  62  23  0 41
  225 265   0  63  64   0 16  4
  226  30   0  65  66   0  0  0
  227 265   0  67  68   0 16  5
  228  30   0  69  70   0  0  0
  229 265   0  71  72   0 16  6
  230 155   0  73  74  24  0  0
  231 220   6   0   0   2  0  0
  232  70   0  61  62  25  0 42
  233 265   0  63  64   0  5  4
  234  30   0  65  66   0  0  0
  235 265   0  67  68   0  5  5
  236  30   0  69  70   0  0  0
  237 265   0  71  72   0  5  6
  238 155   0  73  74  26  0  0
  239 220   4   0   0   2  0  0
  240  70   0  61  62  27  0 43
  241 265   0  63  64   0  3  4
  242  30   0  65  66   0  0  0
  243 265   0  67  68   0  3  5
  244  30   0  69  70   0  0  0
  245 265   0  71  72   0  3  6
  246 155   0  73  74  28  0  0
  247 220  13   0   0   2  0  0
  248  70   0  61  62  29  0 44
  249 265   0  63  64   0 12  4
  250  30   0  65  66   0  0  0
  251 265   0  67  68   0 12  5
  252  30   0  69  70   0  0  0
  253 265   0  71  72   0 12  6
  254 155   0  73  74  30  0  0
  255 220   9   0   0   2  0  0
  256  70   0  61  62  31  0 45
  257 265   0  63  64   0  8  4
  258  30   0  65  66   0  0  0
  259 265   0  67  68   0  8  5
  260  30   0  69  70   0  0  0
  261 265   0  71  72   0  8  6
  262 155   0  73  74  32  0  0
  263   0   0   0   0   0  0  0
  264 220  16   0   0   2  0  0
  265  70   0  75  76   5  0 46
  266 265   0  77  78   0 15  4
  267  30   0  79  80   0  0  0
  268 265   0  81  82   0 15  5
  269  30   0  83  84   0  0  0
  270 265   0  85  86   0 15  6
  271 155   0  87  88  18  0  0
  272 220   8   0   0   2  0  0
  273  70   0  75  76  19  0 47
  274 265   0  77  78   0  7  4
  275  30   0  79  80   0  0  0
  276 265   0  81  82   0  7  5
  277  30   0  83  84   0  0  0
  278 265   0  85  86   0  7  6
  279 155   0  87  88  20  0  0
  280 220  11   0   0   2  0  0
  281  70   0  75  76  21  0 48
  282 265   0  77  78   0 10  4
  283  30   0  79  80   0  0  0
  284 265   0  81  82   0 10  5
  285  30   0  83  84   0  0  0
  286 265   0  85  86   0 10  6
  287 155   0  87  88  22  0  0
  288 220  17   0   0   2  0  0
  289  70   0  75  76  23  0 49
  290 265   0  77  78   0 16  4
  291  30   0  79  80   0  0  0
  292 265   0  81  82   0 16  5
  293  30   0  83  84   0  0  0
  294 265   0  85  86   0 16  6
  295 155   0  87  88  24  0  0
  296 220  17   0   0   2  0  0
  297  70   0  75  76  25  0 50
  298 265   0  77  78   0 16  4
  299  30   0  79  80   0  0  0
  300 265   0  81  82   0 16  5
  301  30   0  83  84   0  0  0
[RF]
1      609.248 1 2 3 100 0 0
2      69.4997 4 5 0 150 0 0
3      69.4997 4 5 0 150 0 0.872665
4      69.4997 4 5 0 150 0 2.61799
5      69.4997 4 5 0 150 0 5.23599
6      69.4997 4 5 0 150 0 2.44346
7      69.4997 4 5 0 150 0 0.523599
8      69.4997 4 5 0 150 0 5.75959
9      69.4997 4 5 0 150 0 5.58505
10      69.4997 4 5 0 150 0 1.5708
11      69.4997 4 5 0 150 0 4.01426
12      69.4997 4 5 0 150 0 1.0472
13      69.4997 4 5 0 150 0 3.66519
14      69.4997 4 5 0 150 0 4.18879
15      69.4997 4 5 0 150 0 4.71239
16      69.4997 4 5 0 150 0 2.0944
17      69.4997 4 5 0 150 0 3.14159

# Format of arbitrary gradients:
#   time_shape_id of 0 means default timing (stepping with grad_raster starting at 1/2 of grad_raster)
# id amplitude amp_shape_id time_shape_id delay
# ..      Hz/m       ..         ..          us
[GRADIENTS]
3   -1.125e+06 6 7 150
4            0 8 7 150
6       250000 9 10 0
7            0 11 10 0
8       250000 12 13 0
9       242492 14 13 0
10      -249354 9 10 0
11     -17962.4 9 10 0
12      -249354 15 13 0
13      -241239 16 13 0
14       247419 9 10 0
15      35831.9 9 10 0
16  1.17391e+06 17 18 0
17  1.17391e+06 19 18 0
33 -1.09892e+06 6 7 150
34      -240823 6 7 150
35       244205 9 10 0
36      53516.3 9 10 0
37       244205 20 13 0
38       235004 21 13 0
39      -239729 9 10 0
40       -70924 9 10 0
41      -239729 22 13 0
42      -230055 23 13 0
43       234013 9 10 0
44        87965 9 10 0
45  1.17391e+06 24 18 0
46  1.17391e+06 25 18 0
47  -1.0219e+06 6 7 150
48      -470481 6 7 150
49       227088 9 10 0
50       104551 9 10 0
51       227088 26 13 0
52       216621 27 13 0
53      -218989 9 10 0
54      -120597 9 10 0
55      -218989 28 13 0
56      -208205 29 13 0
57       209758 9 10 0
58       136020 9 10 0
59  1.17391e+06 30 18 0
60  1.17391e+06 31 18 0
61      -897495 6 7 150
62      -678328 6 7 150
63       199443 9 10 0
64       150739 9 10 0
65       199443 32 13 0
66       188194 33 13 0
67      -188097 9 10 0
68      -164680 9 10 0
69      -188097 34 13 0
70      -177769 35 13 0
71       175779 9 10 0
72       177769 9 10 0
73  1.17391e+06 36 18 0
74  1.17391e+06 37 18 0
75      -731484 6 7 150
76      -854726 6 7 150
77       162552 9 10 0
78       189939 9 10 0
79       189907 38 13 0
80       201127 39 13 0
81      -148485 9 10 0
82      -201127 9 10 0
83      -200268 40 13 0
84      -211276 41 13 0
85       133650 9 10 0
86       211276 9 10 0
87  1.17391e+06 42 18 0
88  1.17391e+06 43 18 0
89      -531561 6 7 150
90      -991498 6 7 150
91       118125 9 10 0
92       220333 9 10 0
93       217838 44 13 0
94       228251 45 13 0
95      -101989 9 10 0
96      -228251 9 10 0
97      -224955 46 13 0
98      -234989 47 13 0
99      85325.2 9 10 0
100       234989 9 10 0
101  1.17391e+06 48 18 0
102  1.17391e+06 49 18 0
103      -306994 6 7 150
104  -1.0823e+06 6 7 150
105      68220.9 9 10 0
106       240512 9 10 0
107       235669 50 13 0
108       244792 51 13 0
109     -50763.9 9 10 0
110      -244792 9 10 0
111      -239212 52 13 0
112      -247806 53 13 0
113      33044.5 9 10 0
114       247806 9 10 0
115  1.17391e+06 54 18 0
116  1.17391e+06 55 18 0
117     -68194.4 6 7 150
118 -1.12293e+06 6 7 150
119      15154.3 9 10 0
120       249540 9 10 0
121       242575 56 13 0
122       249984 57 13 0
123      2814.22 9 10 0
124      -249984 9 10 0
125       242379 58 13 0
126      -249984 59 13 0
127     -20768.2 9 10 0
128       249136 9 10 0
129 -1.17391e+06 60 18 0
130  1.17391e+06 61 18 0
131       173767 6 7 150
132  -1.1115e+06 6 7 150
133     -38614.8 9 10 0
134       247000 9 10 0
135      -238235 62 13 0
136       247000 63 13 0
137      56261.8 9 10 0
138      -243587 9 10 0
139       234309 64 13 0
140      -243587 65 13 0
141     -73618.1 9 10 0
142       238915 9 10 0
143 -1.17391e+06 66 18 0
144  1.17391e+06 67 18 0
145       407672 6 7 150
146 -1.04854e+06 6 7 150
147     -90593.7 9 10 0
148       233008 9 10 0
149      -222850 68 13 0
150       233008 69 13 0
151       107101 9 10 0
152      -225897 9 10 0
153       215376 70 13 0
154      -225897 71 13 0
155      -123055 9 10 0
156       217618 9 10 0
157 -1.17391e+06 72 18 0
158  1.17391e+06 73 18 0
159       622677 6 7 150
160      -936963 6 7 150
161      -138373 9 10 0
162       208214 9 10 0
163      -197133 74 13 0
164       208214 75 13 0
165       152975 9 10 0
166      -197734 9 10 0
167       186458 76 13 0
168      -197734 77 13 0
169      -166787 9 10 0
170       186232 9 10 0
171 -1.17391e+06 78 18 0
172  1.17391e+06 79 18 0
173       808814 6 7 150
174      -781950 6 7 150
175      -179736 9 10 0
176       173767 9 10 0
177      -191757 80 13 0
178       180402 81 13 0
179       191757 9 10 0
180      -160404 9 10 0
181       202786 82 13 0
182      -191595 83 13 0
183      -202786 9 10 0
184       146211 9 10 0
185 -1.17391e+06 84 18 0
186  1.17391e+06 85 18 0
187       957453 6 7 150
188      -590685 6 7 150
189      -212767 9 10 0
190       131263 9 10 0
191      -221649 86 13 0
192       210958 87 13 0
193       221649 9 10 0
194      -115637 9 10 0
195       229384 88 13 0
196      -219027 89 13 0
197      -229384 9 10 0
198      99412.7 9 10 0
199 -1.17391e+06 90 18 0
200  1.17391e+06 91 18 0
201   1.0617e+06 6 7 150
202      -372036 6 7 150
203      -235934 9 10 0
204      82674.6 9 10 0
205      -241264 92 13 0
206       231733 93 13 0
207       241264 9 10 0
208     -65509.1 9 10 0
209       245348 94 13 0
210      -236305 95 13 0
211      -245348 9 10 0
212      48005.1 9 10 0
213 -1.17391e+06 96 18 0
214  1.17391e+06 97 18 0
215  1.11673e+06 6 7 150
216      -136138 6 7 150
217      -248163 9 10 0
218      30252.9 9 10 0
219      -249695 98 13 0
220       241766 99 13 0
221       249695 9 10 0
222     -12344.3 9 10 0
223       249937 100 13 0
224      -242627 101 13 0
225      -249937 9 10 0
226     -5628.08 9 10 0
227 -1.17391e+06 102 18 0
228 -1.17391e+06 103 18 0
229  1.11999e+06 6 7 150
230       106071 6 7 150
231      -248886 9 10 0
232     -23571.4 9 10 0
233      -248886 104 13 0
234      -240590 105 13 0
235       246549 9 10 0
236      41392.8 9 10 0
237       246549 106 13 0
238       237701 107 13 0
239      -242938 9 10 0
240     -59000.3 9 10 0
241 -1.17391e+06 108 18 0
242 -1.17391e+06 109 18 0
243  1.07132e+06 6 7 150
244       343363 6 7 150
245      -238071 9 10 0
246     -76302.8 9 10 0
247      -238071 110 13 0
248      -228259 111 13 0
249       231974 9 10 0
250      93210.9 9 10 0
251       231974 112 13 0
252       221755 113 13 0
253      -224677 9 10 0
254      -109637 9 10 0
255 -1.17391e+06 114 18 0
256 -1.17391e+06 115 18 0
257       972984 6 7 150
258       564736 6 7 150
259      -216219 9 10 0
260      -125497 9 10 0
261      -216219 116 13 0
262      -205347 117 13 0
263       206643 9 10 0
264       140708 9 10 0
265       206643 118 13 0
266       195528 119 13 0
267      -195999 9 10 0
268      -155191 9 10 0
269 -1.17391e+06 120 18 0
270 -1.17391e+06 121 18 0
271       829540 6 7 150
272       759927 6 7 150
273      -184342 9 10 0
274      -168873 9 10 0
275      -184342 122 13 0
276      -181681 123 13 0
277       171732 9 10 0
278       181681 9 10 0
279       182217 124 13 0
280       193550 125 13 0
281      -158235 9 10 0
282      -193550 9 10 0
283 -1.17391e+06 126 18 0
284 -1.17391e+06 127 18 0
285       647637 6 7 150
286       919887 6 7 150
287      -143919 9 10 0
288      -204419 9 10 0
289      -203302 128 13 0
290      -214231 129 13 0
291       128860 9 10 0
292       214231 9 10 0
293       212294 130 13 0
294       222936 131 13 0
295      -113134 9 10 0
296      -222936 9 10 0
297 -1.17391e+06 132 18 0
298 -1.17391e+06 133 18 0
299       435709 6 7 150
300   1.0372e+06 6 7 150
301     -96824.2 9 10 0
302      -230489 9 10 0
303      -226945 134 13 0
304      -236850 135 13 0
305      80013.4 9 10 0
306       236850 9 10 0
307       232529 136 13 0
308       241987 137 13 0
309     -62789.1 9 10 0
310      -241987 9 10 0
311 -1.17391e+06 138 18 0
312 -1.17391e+06 139 18 0
313       203581 6 7 150
314  1.10643e+06 6 7 150
315     -45240.2 9 10 0
316      -245873 9 10 0
317      -240067 140 13 0
318      -248488 141 13 0
319      27457.4 9 10 0
320       248488 9 10 0
321       241983 142 13 0
322       249818 143 13 0
323     -9532.73 9 10 0
324      -249818 9 10 0
325 -1.17391e+06 144 18 0
326 -1.17391e+06 145 18 0
327     -37985.5 6 7 150
328  1.12436e+06 6 7 150
329      8441.23 9 10 0
330      -249857 9 10 0
331       242059 146 13 0
332      -249857 147 13 0
333     -26371.6 9 10 0
334       248605 9 10 0
335      -240219 148 13 0
336       248605 149 13 0
337      44165.6 9 10 0
338      -246068 9 10 0
339  1.17391e+06 150 18 0
340 -1.17391e+06 151 18 0
341      -277791 6 7 150
342  1.09016e+06 6 7 150
343      61731.3 9 10 0
344      -242259 9 10 0
345       232830 152 13 0
346      -242259 153 13 0
347     -78977.9 9 10 0
348       237197 9 10 0
349      -227318 154 13 0
350       237197 155 13 0
351      95816.3 9 10 0
352      -230910 9 10 0
353  1.17391e+06 156 18 0
354 -1.17391e+06 157 18 0
355      -504717 6 7 150
356  1.00543e+06 6 7 150
357       112159 9 10 0
358      -223428 9 10 0
359       212805 158 13 0
360      -223428 159 13 0
361      -127923 9 10 0
362       214792 9 10 0
363      -203879 160 13 0
364       214792 161 13 0
365       143025 9 10 0
366      -205046 9 10 0
367  1.17391e+06 162 18 0
368 -1.17391e+06 163 18 0
369      -708245 6 7 150
370       874079 6 7 150
371       157388 9 10 0
372      -194240 9 10 0
373       182915 164 13 0
374      -194240 165 13 0
375      -170937 9 10 0
376       182430 9 10 0
377      -183603 166 13 0
378       182430 167 13 0
379       183603 9 10 0
380      -169676 9 10 0
381  1.17391e+06 168 18 0
382 -1.17391e+06 169 18 0
383      -878937 6 7 150
384       702207 6 7 150
385       195319 9 10 0
386      -156046 9 10 0
387       206026 170 13 0
388      -194898 171 13 0
389      -206026 9 10 0
390       141609 9 10 0
391      -215668 172 13 0
392       204780 173 13 0
393       215668 9 10 0
394      -126440 9 10 0
395  1.17391e+06 174 18 0
396 -1.17391e+06 175 18 0
397 -1.00888e+06 6 7 150
398       497780 6 7 150
399       224196 9 10 0
400      -110618 9 10 0
401       231564 176 13 0
402      -221322 177 13 0
403      -231564 9 10 0
404      94223.5 9 10 0
405      -237736 178 13 0
406       227898 179 13 0
407       237736 9 10 0
408     -77342.2 9 10 0
409  1.17391e+06 180 18 0
410 -1.17391e+06 181 18 0
411 -1.09205e+06 6 7 150
412       270275 6 7 150
413       242678 9 10 0
414     -60061.1 9 10 0
415       246366 182 13 0
416      -237486 183 13 0
417      -246366 9 10 0
418      42469.6 9 10 0
419      -248781 184 13 0
420       240449 185 13 0
421       248781 9 10 0
422     -24658.5 9 10 0
423  1.17391e+06 186 18 0
424 -1.17391e+06 187 18 0
425 -1.12459e+06 6 7 150
426      30239.8 6 7 150
427       249910 9 10 0
428     -6719.96 9 10 0
429       249910 188 13 0
430      -242639 189 13 0
431      -249747 9 10 0
432     -11253.3 9 10 0
433      -249747 190 13 0
434      -241854 191 13 0
435       248293 9 10 0
436      29168.4 9 10 0
437  1.17391e+06 192 18 0
438  1.17391e+06 193 18 0
439   -1.105e+06 6 7 150
440      -211197 6 7 150
441       245555 9 10 0
442      46932.7 9 10 0
443       245555 194 13 0
444       236543 195 13 0
445      -241548 9 10 0
446     -64454.5 9 10 0
447      -241548 196 13 0
448      -232046 197 13 0
449       236293 9 10 0
450        81643 9 10 0
451  1.17391e+06 198 18 0
452  1.17391e+06 199 18 0
453 -1.03417e+06 6 7 150
454      -442843 6 7 150
455       229816 9 10 0
456      98409.6 9 10 0
457       229816 200 13 0
458       219481 201 13 0
459      -222152 9 10 0
460      -114667 9 10 0
461      -222152 202 13 0
462      -211479 203 13 0
463       213339 9 10 0
464       130333 9 10 0
465  1.17391e+06 204 18 0
466  1.17391e+06 205 18 0
467      -915404 6 7 150
468      -653958 6 7 150
469       203423 9 10 0
470       145324 9 10 0
471       203423 206 13 0
472       192244 207 13 0
473      -192456 9 10 0
474      -159564 9 10 0
475      -192456 208 13 0
476      -181109 209 13 0
477       180494 9 10 0
478       172980 9 10 0
479  1.17391e+06 210 18 0
480  1.17391e+06 211 18 0
481      -754195 6 7 150
482      -834755 6 7 150
483       167599 9 10 0
484       185501 9 10 0
485       185778 212 13 0
486       197064 213 13 0
487      -153837 9 10 0
488      -197064 9 10 0
489      -196513 214 13 0
490      -207607 215 13 0
491       139281 9 10 0
492       207607 9 10 0
493  1.17391e+06 216 18 0
494  1.17391e+06 217 18 0
495      -558020 6 7 150
496      -976851 6 7 150
497       124004 9 10 0
498       217078 9 10 0
499       214886 218 13 0
500       225427 219 13 0
501      -108087 9 10 0
502      -225427 9 10 0
503      -222428 220 13 0
504      -232610 221 13 0
505      91610.8 9 10 0
506       232610 9 10 0
507  1.17391e+06 222 18 0
508  1.17391e+06 223 18 0
509      -335975 6 7 150
510 -1.07366e+06 6 7 150
511      74661.1 9 10 0
512       238591 9 10 0
513       234031 224 13 0
514       243339 225 13 0
515     -57325.5 9 10 0
516      -243339 9 10 0
517      -238031 226 13 0
518      -246829 227 13 0
519      39693.6 9 10 0
520       246829 9 10 0
521  1.17391e+06 228 18 0
522  1.17391e+06 229 18 0
523     -98353.9 6 7 150
524 -1.12069e+06 6 7 150
525      21856.4 9 10 0
526       249043 9 10 0
527       242326 230 13 0
528       249969 231 13 0
529     -3906.33 9 10 0
530      -249969 9 10 0
531      -242599 232 13 0
532      -249969 233 13 0
533       -14064 9 10 0
534       249604 9 10 0
535 -1.17391e+06 234 18 0
536  1.17391e+06 235 18 0
537       143827 6 7 150
538 -1.11577e+06 6 7 150
539     -31961.6 9 10 0
540       247949 9 10 0
541      -239387 236 13 0
542       247949 237 13 0
543      49693.9 9 10 0
544      -245011 9 10 0
545       235919 238 13 0
546      -245011 239 13 0
547     -67169.5 9 10 0
548       240808 9 10 0
549 -1.17391e+06 240 18 0
550  1.17391e+06 241 18 0
551       379340 6 7 150
552 -1.05912e+06 6 7 150
553     -84297.8 9 10 0
554       235359 9 10 0
555      -225350 242 13 0
556       235359 243 13 0
557       100990 9 10 0
558      -228694 9 10 0
559       218302 244 13 0
560      -228694 245 13 0
561      -117161 9 10 0
562       220847 9 10 0
563 -1.17391e+06 246 18 0
564  1.17391e+06 247 18 0
565       597266 6 7 150
566      -953361 6 7 150
567      -132726 9 10 0
568       211858 9 10 0
569      -200865 248 13 0
570       211858 249 13 0
571       147605 9 10 0
572      -201774 9 10 0
573       190565 250 13 0
574      -201774 251 13 0
575      -161721 9 10 0
576       190647 9 10 0
577 -1.17391e+06 252 18 0
578  1.17391e+06 253 18 0
579       787503 6 7 150
580      -803408 6 7 150
581      -175001 9 10 0
582       178535 9 10 0
583      -187376 254 13 0
584       178535 255 13 0
585       187376 9 10 0
586      -165500 9 10 0
587       198783 256 13 0
588      -187523 257 13 0
589      -198783 9 10 0
590       151609 9 10 0
591 -1.17391e+06 258 18 0
592  1.17391e+06 259 18 0
593       941229 6 7 150
594      -616208 6 7 150
595      -209162 9 10 0
596       136935 9 10 0
597      -218460 260 13 0
598       207659 261 13 0
599       218460 9 10 0
600      -121553 9 10 0
601       226629 262 13 0
602      -216141 263 13 0
603      -226629 9 10 0
604       105543 9 10 0
605 -1.17391e+06 264 18 0
606  1.17391e+06 265 18 0
607  1.05132e+06 6 7 150
608      -400440 6 7 150
609      -233627 9 10 0
610      88986.6 9 10 0
611      -239416 266 13 0
612       229715 267 13 0
613       239416 9 10 0
614     -71970.6 9 10 0
615       243969 268 13 0
616      -234738 269 13 0
617      -243969 9 10 0
618      54582.6 9 10 0
619 -1.17391e+06 270 18 0
620  1.17391e+06 271 18 0
621  1.11267e+06 6 7 150
622      -166106 6 7 150
623      -247260 9 10 0
624      36912.5 9 10 0
625      -249273 272 13 0
626       241122 273 13 0
627       249273 9 10 0
628     -19051.6 9 10 0
629       249998 274 13 0
630      -242452 275 13 0
631      -249998 9 10 0
632      1092.21 9 10 0
633 -1.17391e+06 276 18 0
634  1.17391e+06 277 18 0
635  1.12243e+06 6 7 150
636      75927.7 6 7 150
637      -249430 9 10 0
638     -16872.8 9 10 0
639      -249430 278 13 0
640      -241351 279 13 0
641       247573 9 10 0
642      34750.7 9 10 0
643       247573 280 13 0
644       238926 281 13 0
645      -244436 9 10 0
646     -52448.9 9 10 0
647 -1.17391e+06 282 18 0
648 -1.17391e+06 283 18 0
649  1.08016e+06 6 7 150
650       314442 6 7 150
651      -240036 9 10 0
652     -69875.9 9 10 0
653      -240036 284 13 0
654      -230390 285 13 0
655       234395 9 10 0
656      86941.8 9 10 0
657       234395 286 13 0
658       224323 287 13 0
659      -227543 9 10 0
660      -103558 9 10 0
661 -1.17391e+06 288 18 0
662 -1.17391e+06 289 18 0
663       987813 6 7 150
664       538378 6 7 150
665      -219514 9 10 0
666      -119640 9 10 0
667      -219514 290 13 0
668      -208747 291 13 0
669       210351 9 10 0
670       135102 9 10 0
671       210351 292 13 0
672       199320 293 13 0
673      -200100 9 10 0
674      -149867 9 10 0
675 -1.17391e+06 294 18 0
676 -1.17391e+06 295 18 0
677       849667 6 7 150
678       737354 6 7 150
679      -188815 9 10 0
680      -163856 9 10 0
681      -188815 296 13 0
682      -177427 297 13 0
683       176554 9 10 0
684       176999 9 10 0
685       177844 298 13 0
686       189227 299 13 0
687      -163380 9 10 0
688      -189227 9 10 0
689 -1.17391e+06 300 18 0
690 -1.17391e+06 301 18 0
691       672129 6 7 150
692       902146 6 7 150
693      -149362 9 10 0
694      -200477 9 10 0
695      -199668 302 13 0
696      -210690 303 13 0
697       134572 9 10 0
698       210690 9 10 0
699       209058 304 13 0
700       219815 305 13 0
701      -119086 9 10 0
702      -219815 9 10 0
703 -1.17391e+06 306 18 0
704 -1.17391e+06 307 18 0
705       463431 6 7 150
706  1.02511e+06 6 7 150
707      -102985 9 10 0
708      -227803 9 10 0
709      -224555 308 13 0
710      -234614 309 13 0
711        86351 9 10 0
712       234614 9 10 0
713       230581 310 13 0
714       240211 311 13 0
715       -69271 9 10 0
716      -240211 9 10 0
717 -1.17391e+06 312 18 0
718 -1.17391e+06 313 18 0
719       233248 6 7 150
720  1.10055e+06 6 7 150
721     -51832.9 9 10 0
722      -244568 9 10 0
723      -239032 314 13 0
724      -247660 315 13 0
725      34126.8 9 10 0
726       247660 9 10 0
727       241413 316 13 0
728       249472 317 13 0
729     -16244.4 9 10 0
730      -249472 9 10 0
731 -1.17391e+06 318 18 0
732 -1.17391e+06 319 18 0
733     -7749.24 6 7 150
734  1.12497e+06 6 7 150
735      1722.05 9 10 0
736      -249994 9 10 0
737       242426 320 13 0
738      -249994 321 13 0
739     -19679.6 9 10 0
740       249224 9 10 0
741      -241053 322 13 0
742       249224 323 13 0
743      37535.4 9 10 0
744      -247166 9 10 0
745  1.17391e+06 324 18 0
746 -1.17391e+06 325 18 0
747      -248387 6 7 150
748  1.09724e+06 6 7 150
749      55197.1 9 10 0
750      -243830 9 10 0
751       234582 326 13 0
752      -243830 327 13 0
753     -72573.6 9 10 0
754       239234 9 10 0
755      -229518 328 13 0
756       239234 329 13 0
757      89574.9 9 10 0
758      -233402 9 10 0
759  1.17391e+06 330 18 0
760 -1.17391e+06 331 18 0
761      -477509 6 7 150
762  1.01863e+06 6 7 150
763       106113 9 10 0
764      -226363 9 10 0
765       215862 332 13 0
766      -226363 333 13 0
767      -122103 9 10 0
768       218153 9 10 0
769      -207342 334 13 0
770       218153 335 13 0
771       137462 9 10 0
772      -208816 9 10 0
773  1.17391e+06 336 18 0
774 -1.17391e+06 337 18 0
775      -684494 6 7 150
776       892801 6 7 150
777       152110 9 10 0
778      -198400 9 10 0
779       187135 338 13 0
780      -198400 339 13 0
781      -165972 9 10 0
782       186958 9 10 0
783      -178975 340 13 0
784       186958 341 13 0
785       178975 9 10 0
786      -174550 9 10 0
787  1.17391e+06 342 18 0
788 -1.17391e+06 343 18 0
789      -859744 6 7 150
790       725579 6 7 150
791       191054 9 10 0
